1689212375796,1024.5078
1689212375796,1024.5399
1689212375831,1024.545
1689212375868,1024.5513
1689212375889,1024.5516
1689212375930,1024.5684
1689212375968,1024.5713
1689212375988,1024.5717
1689212376033,1024.5714
1689212376069,1024.5613
1689212376088,1024.5704
1689212376137,1024.5637
1689212376169,1024.5647
1689212376188,1024.5625
1689212376231,1024.5657
1689212376275,1024.5647
1689212376288,1024.5549
1689212376330,1024.5575
1689212376369,1024.5598
1689212376389,1024.5662
1689212376429,1024.5732
1689212376470,1024.5657
1689212376489,1024.5676
1689212376529,1024.5728
1689212376568,1024.5813
1689212376588,1024.5736
1689212376633,1024.5723
1689212376668,1024.5796
1689212376688,1024.5742
1689212376729,1024.5626
1689212376749,1024.5732
1689212376789,1024.5746
1689212376828,1024.5804
1689212376868,1024.5824
1689212376888,1024.5823
1689212376929,1024.5957
1689212376971,1024.5977
1689212376989,1024.6033
1689212377055,1024.6078
1689212377068,1024.606
1689212377088,1024.6119
1689212377128,1024.6127
1689212377169,1024.6157
1689212377188,1024.6102
1689212377228,1024.6031
1689212377270,1024.6022
1689212377290,1024.6086
1689212377350,1024.6119
1689212377370,1024.6166
1689212377389,1024.6077
1689212377469,1024.6058
1689212377470,1024.6034
1689212377556,1024.6011
1689212377556,1024.6036
1689212377568,1024.5991
1689212377632,1024.6096
1689212377632,1024.61
1689212377684,1024.6135
1689212377694,1024.6099
1689212377728,1024.6202
1689212377772,1024.6295
1689212377790,1024.6359
1689212377829,1024.6327
1689212377969,1024.6506
1689212377989,1024.649
1689212378028,1024.6447
1689212378048,1024.6475
1689212378089,1024.6421
1689212378130,1024.635
1689212378172,1024.6204
1689212378191,1024.6256
1689212378228,1024.6396
1689212378250,1024.648
1689212378289,1024.6434
1689212378330,1024.6417
1689212378370,1024.6423
1689212378388,1024.635
1689212378429,1024.6393
1689212378475,1024.6377
1689212378488,1024.6343
1689212378527,1024.6461
1689212378573,1024.6426
1689212378590,1024.6301
1689212378628,1024.6326
1689212378668,1024.6188
1689212378689,1024.6344
1689212378728,1024.6223
1689212378768,1024.6001
1689212378790,1024.6108
1689212378831,1024.6168
1689212378872,1024.6342
1689212378888,1024.6425
1689212378930,1024.6569
1689212378972,1024.6588
1689212378991,1024.6664
1689212379029,1024.6615
1689212379072,1024.652
1689212379112,1024.6567
1689212379128,1024.6548
1689212379172,1024.653
1689212379188,1024.6515
1689212379229,1024.6567
1689212379273,1024.6667
1689212379288,1024.6539
1689212379329,1024.6298
1689212379370,1024.623
1689212379391,1024.6277
1689212379431,1024.6343
1689212379471,1024.6324
1689212379489,1024.6343
1689212379528,1024.6401
1689212379570,1024.6443
1689212379589,1024.6433
1689212379628,1024.636
1689212379667,1024.6326
1689212379687,1024.6383
1689212379728,1024.641
1689212379768,1024.6365
1689212379790,1024.6296
1689212379829,1024.6233
1689212379867,1024.6381
1689212379888,1024.6239
1689212379926,1024.6112
1689212379972,1024.6162
1689212379987,1024.6144
1689212380027,1024.6252
1689212380071,1024.6367
1689212380086,1024.6428
1689212380127,1024.6428
1689212380167,1024.6416
1689212380188,1024.6455
1689212380227,1024.6445
1689212380271,1024.6527
1689212380287,1024.6528
1689212380326,1024.6418
1689212380367,1024.6332
1689212380392,1024.6437
1689212380451,1024.6475
1689212380468,1024.6436
1689212380490,1024.6368
1689212380532,1024.6362
1689212380567,1024.6395
1689212380587,1024.6372
1689212380649,1024.6436
1689212380667,1024.6482
1689212380688,1024.6517
1689212380727,1024.6378
1689212380773,1024.6306
1689212380789,1024.6438
1689212380841,1024.6365
1689212380867,1024.6433
1689212380887,1024.6542
1689212380930,1024.6302
1689212380974,1024.6284
1689212380987,1024.6302
1689212381029,1024.6333
1689212381069,1024.6311
1689212381088,1024.6348
1689212381128,1024.6395
1689212381168,1024.6495
1689212381194,1024.6536
1689212381226,1024.6621
1689212381268,1024.6588
1689212381287,1024.6615
1689212381327,1024.656
1689212381372,1024.6556
1689212381387,1024.6521
1689212381431,1024.6537
1689212381467,1024.6508
1689212381496,1024.6472
1689212381526,1024.653
1689212381572,1024.6573
1689212381597,1024.6505
1689212381628,1024.6385
1689212381666,1024.6323
1689212381688,1024.6349
1689212381727,1024.6335
1689212381766,1024.6392
1689212381788,1024.6373
1689212381832,1024.6329
1689212381867,1024.6346
1689212381888,1024.6324
1689212381928,1024.639
1689212381968,1024.638
1689212381998,1024.6399
1689212382026,1024.6472
1689212382067,1024.6439
1689212382087,1024.6309
1689212382126,1024.621
1689212382166,1024.6229
1689212382186,1024.6083
1689212382226,1024.6003
1689212382267,1024.605
1689212382289,1024.6257
1689212382328,1024.6328
1689212382367,1024.6312
1689212382387,1024.6272
1689212382427,1024.6304
1689212382465,1024.6383
1689212382485,1024.6384
1689212382526,1024.641
1689212382567,1024.6396
1689212382595,1024.6455
1689212382626,1024.6433
1689212382670,1024.6396
1689212382686,1024.6317
1689212382726,1024.6405
1689212382768,1024.6526
1689212382785,1024.6403
1689212382827,1024.6222
1689212382872,1024.6271
1689212382889,1024.6287
1689212382929,1024.624
1689212382969,1024.6283
1689212382985,1024.625
1689212383027,1024.6216
1689212383065,1024.6189
1689212383091,1024.6143
1689212383125,1024.6072
1689212383167,1024.6078
1689212383188,1024.6194
1689212383226,1024.6052
1689212383265,1024.5867
1689212383288,1024.5957
1689212383326,1024.594
1689212383368,1024.5958
1689212383396,1024.58
1689212383425,1024.5828
1689212383465,1024.5824
1689212383485,1024.5908
1689212383530,1024.6005
1689212383565,1024.6062
1689212383585,1024.6036
1689212383627,1024.606
1689212383665,1024.6188
1689212383687,1024.6173
1689212383743,1024.6166
1689212383766,1024.6086
1689212383787,1024.6039
1689212383828,1024.6011
1689212383868,1024.6039
1689212383886,1024.6088
1689212383925,1024.6052
1689212383969,1024.5865
1689212383989,1024.5753
1689212384026,1024.5787
1689212384066,1024.5793
1689212384085,1024.5895
1689212384129,1024.5944
1689212384167,1024.5922
1689212384185,1024.5908
1689212384226,1024.5797
1689212384265,1024.5802
1689212384287,1024.5684
1689212384325,1024.5868
1689212384365,1024.5887
1689212384386,1024.5803
1689212384426,1024.5657
1689212384468,1024.5654
1689212384486,1024.575
1689212384526,1024.5558
1689212384589,1024.5549
1689212384589,1024.5814
1689212384625,1024.5859
1689212384665,1024.591
1689212384686,1024.5847
1689212384724,1024.5814
1689212384764,1024.5896
1689212384785,1024.5996
1689212384828,1024.595
1689212384869,1024.5955
1689212384884,1024.5938
1689212384931,1024.5887
1689212384966,1024.5868
1689212384988,1024.5812
1689212385024,1024.5989
1689212385074,1024.607
1689212385087,1024.6002
1689212385125,1024.5842
1689212385165,1024.5635
1689212385185,1024.5599
1689212385232,1024.5646
1689212385265,1024.5784
1689212385285,1024.582
1689212385324,1024.5823
1689212385369,1024.5791
1689212385389,1024.5745
1689212385429,1024.5662
1689212385465,1024.5658
1689212385492,1024.5726
1689212385526,1024.5815
1689212385565,1024.5863
1689212385591,1024.5779
1689212385625,1024.5815
1689212385682,1024.5842
1689212385685,1024.573
1689212385725,1024.5583
1689212385774,1024.5677
1689212385785,1024.5786
1689212385828,1024.5869
1689212385869,1024.5928
1689212385884,1024.5928
1689212385928,1024.5927
1689212385966,1024.5986
1689212385990,1024.6036
1689212386023,1024.6057
1689212386070,1024.6145
1689212386084,1024.6014
1689212386124,1024.6008
1689212386170,1024.6005
1689212386183,1024.6006
1689212386224,1024.6008
1689212386264,1024.6064
1689212386283,1024.6011
1689212386324,1024.5884
1689212386365,1024.5868
1689212386388,1024.5848
1689212386425,1024.5917
1689212386464,1024.606
1689212386484,1024.6018
1689212386524,1024.6016
1689212386563,1024.6027
1689212386584,1024.5975
1689212386628,1024.5894
1689212386664,1024.594
1689212386685,1024.6008
1689212386729,1024.5948
1689212386764,1024.5854
1689212386785,1024.5842
1689212386829,1024.5997
1689212386864,1024.5867
1689212386886,1024.5741
1689212386949,1024.5731
1689212386964,1024.5829
1689212386984,1024.6
1689212387024,1024.6097
1689212387064,1024.6151
1689212387087,1024.6322
1689212387123,1024.637
1689212387164,1024.6223
1689212387183,1024.6204
1689212387224,1024.6237
1689212387263,1024.6318
1689212387283,1024.6261
1689212387325,1024.6194
1689212387369,1024.6158
1689212387383,1024.6183
1689212387427,1024.6157
1689212387463,1024.5936
1689212387483,1024.5948
1689212387522,1024.587
1689212387564,1024.5847
1689212387585,1024.6019
1689212387623,1024.6062
1689212387663,1024.6045
1689212387684,1024.606
1689212387724,1024.608
1689212387762,1024.5969
1689212387787,1024.5962
1689212387823,1024.6001
1689212387864,1024.6157
1689212387886,1024.5953
1689212387924,1024.5872
1689212387970,1024.5919
1689212387984,1024.5847
1689212388024,1024.5742
1689212388063,1024.5632
1689212388083,1024.5762
1689212388125,1024.5953
1689212388163,1024.604
1689212388184,1024.5978
1689212388226,1024.6119
1689212388263,1024.629
1689212388284,1024.6323
1689212388328,1024.6304
1689212388368,1024.6332
1689212388385,1024.6315
1689212388423,1024.6306
1689212388464,1024.6191
1689212388482,1024.6222
1689212388523,1024.6298
1689212388564,1024.6227
1689212388583,1024.6019
1689212388623,1024.575
1689212388663,1024.589
1689212388683,1024.5835
1689212388728,1024.5872
1689212388763,1024.5988
1689212388783,1024.6017
1689212388822,1024.598
1689212388864,1024.5977
1689212388884,1024.6077
1689212388927,1024.6072
1689212388964,1024.6106
1689212388984,1024.5996
1689212389024,1024.6035
1689212389063,1024.593
1689212389084,1024.5903
1689212389125,1024.5872
1689212389164,1024.5813
1689212389184,1024.5734
1689212389224,1024.5791
1689212389263,1024.5908
1689212389285,1024.6028
1689212389322,1024.6154
1689212389363,1024.6185
1689212389385,1024.6143
1689212389423,1024.6099
1689212389469,1024.6156
1689212389482,1024.6083
1689212389524,1024.606
1689212389563,1024.6038
1689212389587,1024.6052
1689212389624,1024.5968
1689212389663,1024.593
1689212389684,1024.5973
1689212389731,1024.5968
1689212389762,1024.5867
1689212389783,1024.5792
1689212389822,1024.5896
1689212389861,1024.5986
1689212389882,1024.6028
1689212389928,1024.6047
1689212389962,1024.6047
1689212389982,1024.6022
1689212390024,1024.6132
1689212390069,1024.6116
1689212390081,1024.597
1689212390123,1024.5922
1689212390162,1024.6051
1689212390185,1024.6125
1689212390224,1024.5955
1689212390269,1024.5907
1689212390283,1024.5928
1689212390324,1024.5797
1689212390362,1024.575
1689212390383,1024.5802
1689212390437,1024.5908
1689212390462,1024.6063
1689212390484,1024.6035
1689212390523,1024.6084
1689212390562,1024.615
1689212390584,1024.6277
1689212390623,1024.6233
1689212390664,1024.6174
1689212390681,1024.6202
1689212390722,1024.6239
1689212390768,1024.6245
1689212390781,1024.6202
1689212390821,1024.6187
1689212390865,1024.6152
1689212390884,1024.6045
1689212390928,1024.5825
1689212390962,1024.5737
1689212390990,1024.5856
1689212391021,1024.5898
1689212391064,1024.5952
1689212391082,1024.598
1689212391123,1024.5927
1689212391160,1024.5961
1689212391181,1024.5964
1689212391222,1024.595
1689212391261,1024.5991
1689212391280,1024.614
1689212391321,1024.6149
1689212391362,1024.6073
1689212391382,1024.596
1689212391427,1024.5958
1689212391461,1024.58
1689212391481,1024.572
1689212391522,1024.5887
1689212391562,1024.6041
1689212391583,1024.6053
1689212391630,1024.6061
1689212391660,1024.623
1689212391680,1024.6271
1689212391720,1024.6183
1689212391761,1024.6106
1689212391781,1024.6111
1689212391830,1024.6171
1689212391864,1024.6207
1689212391881,1024.6156
1689212391924,1024.6107
1689212391962,1024.6156
1689212391983,1024.6119
1689212392020,1024.6002
1689212392061,1024.5796
1689212392085,1024.5907
1689212392122,1024.5967
1689212392168,1024.6038
1689212392180,1024.6099
1689212392225,1024.6124
1689212392260,1024.6095
1689212392281,1024.6058
1689212392324,1024.6035
1689212392364,1024.5948
1689212392388,1024.594
1689212392420,1024.6042
1689212392461,1024.6133
1689212392480,1024.61
1689212392529,1024.6068
1689212392562,1024.5977
1689212392585,1024.6097
1689212392622,1024.5856
1689212392661,1024.5828
1689212392691,1024.5981
1689212392721,1024.6036
1689212392761,1024.6133
1689212392780,1024.6178
1689212392823,1024.6149
1689212392860,1024.6195
1689212392882,1024.6241
1689212392928,1024.6249
1689212392964,1024.6173
1689212392981,1024.6104
1689212393021,1024.6086
1689212393060,1024.6165
1689212393081,1024.6094
1689212393126,1024.613
1689212393161,1024.6206
1689212393181,1024.6179
1689212393224,1024.6063
1689212393261,1024.5929
1689212393282,1024.5946
1689212393320,1024.5952
1689212393360,1024.6055
1689212393380,1024.6167
1689212393429,1024.6191
1689212393484,1024.604
1689212393485,1024.5983
1689212393520,1024.6001
1689212393561,1024.6017
1689212393587,1024.6003
1689212393620,1024.6093
1689212393660,1024.6118
1689212393683,1024.6074
1689212393720,1024.5974
1689212393766,1024.6057
1689212393779,1024.5923
1689212393821,1024.5841
1689212393862,1024.5818
1689212393879,1024.5934
1689212393921,1024.5991
1689212393959,1024.6068
1689212393981,1024.6044
1689212394020,1024.5984
1689212394062,1024.6045
1689212394080,1024.606
1689212394122,1024.6083
1689212394159,1024.6062
1689212394180,1024.6038
1689212394220,1024.6042
1689212394268,1024.6041
1689212394280,1024.6069
1689212394321,1024.6123
1689212394369,1024.6086
1689212394379,1024.6005
1689212394422,1024.5923
1689212394459,1024.5865
1689212394480,1024.5944
1689212394521,1024.5952
1689212394561,1024.5922
1689212394582,1024.5975
1689212394620,1024.6067
1689212394663,1024.5992
1689212394679,1024.5868
1689212394720,1024.583
1689212394759,1024.585
1689212394780,1024.5731
1689212394823,1024.5906
1689212394859,1024.5896
1689212394883,1024.5886
1689212394922,1024.5928
1689212394959,1024.5925
1689212394982,1024.5775
1689212395027,1024.5635
1689212395060,1024.5763
1689212395080,1024.5894
1689212395120,1024.5907
1689212395161,1024.6028
1689212395180,1024.6005
1689212395220,1024.611
1689212395259,1024.6101
1689212395288,1024.6096
1689212395319,1024.6055
1689212395359,1024.606
1689212395384,1024.6073
1689212395420,1024.6094
1689212395459,1024.6045
1689212395480,1024.6106
1689212395519,1024.6129
1689212395559,1024.6084
1689212395579,1024.6061
1689212395620,1024.5905
1689212395659,1024.5757
1689212395681,1024.582
1689212395725,1024.591
1689212395760,1024.5994
1689212395779,1024.6011
1689212395819,1024.5988
1689212395859,1024.6006
1689212395879,1024.5889
1689212395920,1024.591
1689212395959,1024.5933
1689212395980,1024.5914
1689212396019,1024.5864
1689212396060,1024.5693
1689212396078,1024.5613
1689212396119,1024.5702
1689212396160,1024.5624
1689212396190,1024.5583
1689212396220,1024.566
1689212396260,1024.579
1689212396280,1024.579
1689212396318,1024.5812
1689212396358,1024.5865
1689212396382,1024.6006
1689212396428,1024.6023
1689212396461,1024.6018
1689212396479,1024.6033
1689212396526,1024.6047
1689212396558,1024.6023
1689212396583,1024.5969
1689212396619,1024.5953
1689212396661,1024.5963
1689212396678,1024.6024
1689212396721,1024.5935
1689212396759,1024.5698
1689212396779,1024.5565
1689212396819,1024.5583
1689212396868,1024.5547
1689212396879,1024.5686
1689212396918,1024.5643
1689212396960,1024.5658
1689212396978,1024.5641
1689212397024,1024.5706
1689212397061,1024.5671
1689212397080,1024.5687
1689212397123,1024.5709
1689212397159,1024.5795
1689212397179,1024.5793
1689212397218,1024.5557
1689212397260,1024.5659
1689212397277,1024.5719
1689212397320,1024.5493
1689212397358,1024.5537
1689212397379,1024.5616
1689212397417,1024.571
1689212397457,1024.5779
1689212397479,1024.5818
1689212397518,1024.5901
1689212397560,1024.6002
1689212397577,1024.61
1689212397618,1024.6064
1689212397658,1024.6082
1689212397679,1024.6138
1689212397718,1024.595
1689212397760,1024.5817
1689212397778,1024.5925
1689212397817,1024.5974
1689212397857,1024.593
1689212397878,1024.5844
1689212397918,1024.5704
1689212397959,1024.5615
1689212397980,1024.5626
1689212398019,1024.5659
1689212398057,1024.5798
1689212398077,1024.5902
1689212398117,1024.591
1689212398158,1024.5884
1689212398177,1024.5824
1689212398220,1024.581
1689212398257,1024.59
1689212398277,1024.5796
1689212398319,1024.577
1689212398356,1024.5643
1689212398378,1024.5635
1689212398418,1024.5732
1689212398462,1024.5566
1689212398478,1024.541
1689212398524,1024.5509
1689212398558,1024.5635
1689212398578,1024.5721
1689212398637,1024.5745
1689212398657,1024.5813
1689212398677,1024.5947
1689212398724,1024.585
1689212398758,1024.576
1689212398780,1024.5706
1689212398819,1024.5719
1689212398859,1024.5708
1689212398886,1024.5619
1689212398918,1024.5609
1689212398958,1024.563
1689212398980,1024.5627
1689212399020,1024.5458
1689212399059,1024.529
1689212399078,1024.5155
1689212399117,1024.5177
1689212399157,1024.5131
1689212399183,1024.5247
1689212399222,1024.5349
1689212399259,1024.5287
1689212399278,1024.5228
1689212399318,1024.5232
1689212399358,1024.5242
1689212399381,1024.5242
1689212399417,1024.5303
1689212399458,1024.527
1689212399488,1024.5095
1689212399517,1024.5044
1689212399557,1024.5034
1689212399578,1024.4927
1689212399616,1024.4851
1689212399657,1024.4908
1689212399680,1024.513
1689212399718,1024.5249
1689212399763,1024.5109
1689212399778,1024.5251
1689212399820,1024.5317
1689212399857,1024.538
1689212399898,1024.5298
1689212399921,1024.5106
1689212399956,1024.5197
1689212400002,1024.5247
1689212400017,1024.5197
1689212400057,1024.5217
1689212400097,1024.5352
1689212400122,1024.5232
1689212400158,1024.5024
1689212400196,1024.4792
1689212400220,1024.4672
1689212400256,1024.4668
1689212400299,1024.47
1689212400320,1024.4747
1689212400356,1024.4913
1689212400398,1024.4954
1689212400415,1024.49
1689212400458,1024.492
1689212400505,1024.4863
1689212400517,1024.4792
1689212400564,1024.4828
1689212400577,1024.4773
1689212400617,1024.4705
1689212400660,1024.4624
1689212400699,1024.4628
1689212400717,1024.4789
1689212400757,1024.4482
1689212400797,1024.4465
1689212400817,1024.4545
1689212400856,1024.4786
1689212400901,1024.4808
1689212400924,1024.4723
1689212400957,1024.4883
1689212400997,1024.4918
1689212401020,1024.4861
1689212401056,1024.4883
1689212401096,1024.4824
1689212401118,1024.4775
1689212401155,1024.4712
1689212401196,1024.4718
1689212401217,1024.4686
1689212401256,1024.4695
1689212401299,1024.459
1689212401322,1024.4445
1689212401355,1024.4319
1689212401397,1024.4293
1689212401419,1024.4443
1689212401455,1024.4614
1689212401495,1024.4601
1689212401520,1024.4557
1689212401557,1024.4495
1689212401599,1024.44
1689212401618,1024.4349
1689212401660,1024.426
1689212401696,1024.4312
1689212401718,1024.4419
1689212401758,1024.4473
1689212401798,1024.4465
1689212401823,1024.4353
1689212401857,1024.4431
1689212401900,1024.432
1689212401917,1024.417
1689212401955,1024.4226
1689212402001,1024.4263
1689212402016,1024.4457
1689212402056,1024.4501
1689212402096,1024.4465
1689212402116,1024.4514
1689212402156,1024.447
1689212402199,1024.4438
1689212402215,1024.4385
1689212402258,1024.444
1689212402297,1024.4506
1689212402317,1024.4408
1689212402356,1024.4459
1689212402400,1024.4563
1689212402416,1024.4507
1689212402457,1024.4443
1689212402496,1024.4438
1689212402522,1024.4211
1689212402554,1024.4133
1689212402596,1024.4108
1689212402614,1024.4069
1689212402663,1024.4193
1689212402698,1024.428
1689212402715,1024.4213
1689212402757,1024.4226
1689212402795,1024.4202
1689212402815,1024.4171
1689212402855,1024.4141
1689212402897,1024.4187
1689212402916,1024.408
1689212402957,1024.4015
1689212402996,1024.389
1689212403015,1024.3895
1689212403055,1024.3875
1689212403095,1024.3755
1689212403115,1024.3855
1689212403162,1024.3942
1689212403204,1024.4042
1689212403215,1024.4025
1689212403255,1024.4058
1689212403309,1024.4084
1689212403314,1024.408
1689212403354,1024.4175
1689212403395,1024.4166
1689212403414,1024.4246
1689212403455,1024.4225
1689212403495,1024.4174
1689212403515,1024.4224
1689212403555,1024.4304
1689212403594,1024.434
1689212403618,1024.4209
1689212403656,1024.4097
1689212403695,1024.3843
1689212403716,1024.39
1689212403755,1024.3843
1689212403794,1024.3811
1689212403815,1024.3861
1689212403854,1024.3904
1689212403894,1024.3987
1689212403918,1024.3912
1689212403955,1024.3977
1689212403994,1024.3989
1689212404015,1024.3936
1689212404055,1024.3956
1689212404098,1024.4071
1689212404115,1024.3959
1689212404156,1024.3889
1689212404197,1024.3876
1689212404215,1024.3926
1689212404254,1024.3789
1689212404298,1024.3727
1689212404314,1024.3867
1689212404354,1024.3926
1689212404395,1024.3939
1689212404415,1024.3978
1689212404456,1024.403
1689212404496,1024.4067
1689212404517,1024.4136
1689212404554,1024.4167
1689212404600,1024.4136
1689212404615,1024.4114
1689212404656,1024.4131
1689212404694,1024.4117
1689212404718,1024.4244
1689212404753,1024.4222
1689212404797,1024.4264
1689212404831,1024.4293
1689212404854,1024.4163
1689212404894,1024.3982
1689212404920,1024.3973
1689212404954,1024.3994
1689212404994,1024.3978
1689212405014,1024.4008
1689212405055,1024.3989
1689212405094,1024.4053
1689212405114,1024.4058
1689212405155,1024.3989
1689212405194,1024.4001
1689212405214,1024.395
1689212405254,1024.4015
1689212405301,1024.4059
1689212405313,1024.3776
1689212405355,1024.3623
1689212405397,1024.3796
1689212405413,1024.39
1689212405458,1024.3853
1689212405495,1024.3785
1689212405514,1024.3844
1689212405555,1024.3961
1689212405598,1024.3962
1689212405617,1024.393
1689212405653,1024.4053
1689212405696,1024.4084
1689212405715,1024.4072
1689212405754,1024.4077
1689212405795,1024.411
1689212405814,1024.4111
1689212405864,1024.4152
1689212405893,1024.41
1689212405914,1024.3972
1689212405955,1024.4022
1689212405994,1024.4172
1689212406013,1024.4229
1689212406053,1024.409
1689212406094,1024.3921
1689212406115,1024.3921
1689212406157,1024.4003
1689212406192,1024.4037
1689212406212,1024.4148
1689212406254,1024.4076
1689212406293,1024.4066
1689212406314,1024.3944
1689212406361,1024.3949
1689212406393,1024.3931
1689212406421,1024.3818
1689212406456,1024.3911
1689212406493,1024.4076
1689212406511,1024.3875
1689212406554,1024.3883
1689212406592,1024.3892
1689212406615,1024.3921
1689212406652,1024.3837
1689212406693,1024.3817
1689212406719,1024.3901
1689212406753,1024.3958
1689212406796,1024.4027
1689212406817,1024.4097
1689212406853,1024.4185
1689212406892,1024.422
1689212406913,1024.4226
1689212406954,1024.4197
1689212406994,1024.414
1689212407013,1024.408
1689212407053,1024.4117
1689212407094,1024.4099
1689212407112,1024.4142
1689212407154,1024.418
1689212407193,1024.4182
1689212407215,1024.3971
1689212407254,1024.3853
1689212407293,1024.3821
1689212407316,1024.3771
1689212407353,1024.3868
1689212407392,1024.3982
1689212407413,1024.3898
1689212407460,1024.3899
1689212407492,1024.3947
1689212407519,1024.3987
1689212407556,1024.3956
1689212407599,1024.3945
1689212407611,1024.4021
1689212407661,1024.395
1689212407693,1024.3801
1689212407717,1024.382
1689212407753,1024.3782
1689212407793,1024.372
1689212407821,1024.3619
1689212407852,1024.3704
1689212407896,1024.3823
1689212407913,1024.3835
1689212407954,1024.4044
1689212407992,1024.4169
1689212408013,1024.4192
1689212408054,1024.4349
1689212408094,1024.4275
1689212408111,1024.4281
1689212408154,1024.4233
1689212408191,1024.416
1689212408213,1024.4192
1689212408253,1024.4188
1689212408292,1024.4115
1689212408312,1024.4194
1689212408353,1024.4078
1689212408392,1024.3975
1689212408413,1024.3918
1689212408459,1024.3989
1689212408492,1024.3956
1689212408513,1024.3997
1689212408552,1024.4088
1689212408595,1024.4152
1689212408612,1024.4122
1689212408652,1024.4087
1689212408694,1024.402
1689212408712,1024.3932
1689212408761,1024.3956
1689212408792,1024.4016
1689212408812,1024.3993
1689212408855,1024.3959
1689212408893,1024.3917
1689212408913,1024.4038
1689212408953,1024.3885
1689212408992,1024.3689
1689212409011,1024.374
1689212409052,1024.3802
1689212409091,1024.3921
1689212409112,1024.3984
1689212409152,1024.4142
1689212409195,1024.4181
1689212409211,1024.4268
1689212409252,1024.4307
1689212409293,1024.4229
1689212409311,1024.4229
1689212409351,1024.4237
1689212409393,1024.42
1689212409413,1024.4163
1689212409458,1024.4282
1689212409491,1024.432
1689212409511,1024.4191
1689212409569,1024.3928
1689212409592,1024.3875
1689212409612,1024.385
1689212409651,1024.3849
1689212409692,1024.396
1689212409712,1024.4109
1689212409753,1024.4054
1689212409792,1024.3969
1689212409811,1024.3944
1689212409851,1024.3964
1689212409892,1024.4006
1689212409914,1024.4207
1689212409954,1024.4171
1689212409992,1024.4022
1689212410012,1024.3888
1689212410057,1024.3871
1689212410091,1024.3904
1689212410114,1024.3755
1689212410150,1024.3765
1689212410191,1024.389
1689212410212,1024.4119
1689212410251,1024.4097
1689212410291,1024.4042
1689212410312,1024.4045
1689212410350,1024.4128
1689212410394,1024.4197
1689212410411,1024.4205
1689212410457,1024.4243
1689212410498,1024.4299
1689212410511,1024.4178
1689212410552,1024.4216
1689212410591,1024.4299
1689212410611,1024.4291
1689212410658,1024.4269
1689212410691,1024.4241
1689212410727,1024.4106
1689212410750,1024.4009
1689212410794,1024.4088
1689212410816,1024.4075
1689212410851,1024.4229
1689212410892,1024.4185
1689212410912,1024.418
1689212410954,1024.4225
1689212410993,1024.4268
1689212411013,1024.4164
1689212411060,1024.4147
1689212411091,1024.4155
1689212411118,1024.4227
1689212411153,1024.4165
1689212411190,1024.4159
1689212411212,1024.4316
1689212411250,1024.4038
1689212411291,1024.3903
1689212411312,1024.3939
1689212411353,1024.4072
1689212411390,1024.4236
1689212411412,1024.4181
1689212411450,1024.427
1689212411492,1024.437
1689212411509,1024.4333
1689212411551,1024.4304
1689212411593,1024.4326
1689212411610,1024.4285
1689212411651,1024.4249
1689212411699,1024.4282
1689212411710,1024.4325
1689212411751,1024.4291
1689212411791,1024.4368
1689212411812,1024.4346
1689212411853,1024.424
1689212411895,1024.4019
1689212411909,1024.3967
1689212411960,1024.4028
1689212411990,1024.4125
1689212412012,1024.4222
1689212412049,1024.4226
1689212412092,1024.4298
1689212412110,1024.4263
1689212412150,1024.4192
1689212412190,1024.4065
1689212412211,1024.4042
1689212412250,1024.4136
1689212412291,1024.4211
1689212412311,1024.411
1689212412360,1024.4086
1689212412390,1024.4164
1689212412411,1024.4089
1689212412450,1024.3926
1689212412490,1024.3961
1689212412511,1024.4061
1689212412549,1024.4222
1689212412591,1024.4285
1689212412610,1024.4333
1689212412650,1024.4385
1689212412691,1024.4355
1689212412710,1024.4402
1689212412750,1024.437
1689212412790,1024.4373
1689212412810,1024.4354
1689212412850,1024.431
1689212412896,1024.4315
1689212412910,1024.4316
1689212412952,1024.4249
1689212412989,1024.4059
1689212413011,1024.3923
1689212413049,1024.3943
1689212413089,1024.3973
1689212413110,1024.4066
1689212413159,1024.4128
1689212413191,1024.4062
1689212413212,1024.4008
1689212413250,1024.4121
1689212413290,1024.4103
1689212413313,1024.4191
1689212413348,1024.4047
1689212413389,1024.3997
1689212413415,1024.3905
1689212413450,1024.3937
1689212413489,1024.3998
1689212413515,1024.4143
1689212413549,1024.4188
1689212413589,1024.4121
1689212413610,1024.414
1689212413652,1024.4283
1689212413690,1024.4447
1689212413713,1024.4435
1689212413752,1024.4419
1689212413791,1024.4473
1689212413809,1024.4332
1689212413851,1024.437
1689212413889,1024.4365
1689212413909,1024.4403
1689212413949,1024.4386
1689212413992,1024.4358
1689212414010,1024.4357
1689212414050,1024.4368
1689212414089,1024.4456
1689212414110,1024.4404
1689212414150,1024.4324
1689212414189,1024.4172
1689212414211,1024.4098
1689212414249,1024.4113
1689212414292,1024.4122
1689212414309,1024.414
1689212414348,1024.4232
1689212414391,1024.4286
1689212414412,1024.4236
1689212414448,1024.4227
1689212414492,1024.42
1689212414510,1024.4089
1689212414549,1024.4109
1689212414588,1024.4224
1689212414612,1024.418
1689212414649,1024.4178
1689212414689,1024.4072
1689212414710,1024.4128
1689212414750,1024.4048
1689212414789,1024.406
1689212414809,1024.4183
1689212414848,1024.416
1689212414891,1024.4084
1689212414913,1024.4105
1689212414950,1024.4204
1689212414989,1024.4164
1689212415009,1024.4132
1689212415049,1024.419
1689212415088,1024.4244
1689212415109,1024.4268
1689212415151,1024.4309
1689212415189,1024.4316
1689212415210,1024.4355
1689212415249,1024.4457
1689212415290,1024.4457
1689212415315,1024.442
1689212415349,1024.4348
1689212415397,1024.4336
1689212415409,1024.4374
1689212415449,1024.4406
1689212415488,1024.4415
1689212415510,1024.4504
1689212415548,1024.4305
1689212415589,1024.4216
1689212415613,1024.4138
1689212415649,1024.4221
1689212415689,1024.4417
1689212415708,1024.451
1689212415757,1024.447
1689212415787,1024.4445
1689212415808,1024.4355
1689212415848,1024.4412
1689212415894,1024.4275
1689212415909,1024.423
1689212415956,1024.4158
1689212415988,1024.4169
1689212416010,1024.4265
1689212416059,1024.4355
1689212416089,1024.4277
1689212416108,1024.4346
1689212416150,1024.4305
1689212416189,1024.4164
1689212416209,1024.414
1689212416249,1024.4268
1689212416288,1024.4296
1689212416310,1024.4315
1689212416349,1024.4307
1689212416386,1024.4259
1689212416410,1024.4303
1689212416449,1024.4382
1689212416489,1024.4363
1689212416519,1024.4373
1689212416548,1024.4397
1689212416588,1024.4397
1689212416607,1024.4515
1689212416658,1024.4424
1689212416688,1024.4475
1689212416709,1024.4513
1689212416750,1024.4492
1689212416787,1024.4584
1689212416807,1024.4487
1689212416848,1024.4508
1689212416890,1024.4619
1689212416908,1024.4678
1689212416948,1024.4496
1689212416998,1024.4374
1689212417008,1024.4392
1689212417048,1024.4443
1689212417100,1024.4409
1689212417109,1024.4454
1689212417149,1024.4468
1689212417188,1024.4459
1689212417211,1024.4503
1689212417247,1024.4514
1689212417297,1024.4434
1689212417308,1024.4375
1689212417348,1024.4313
1689212417389,1024.4193
1689212417412,1024.4288
1689212417447,1024.4303
1689212417494,1024.4357
1689212417508,1024.4192
1689212417556,1024.4254
1689212417586,1024.4243
1689212417605,1024.4109
1689212417649,1024.4188
1689212417688,1024.4309
1689212417709,1024.4376
1689212417751,1024.4387
1689212417788,1024.442
1689212417812,1024.4521
1689212417848,1024.4467
1689212417887,1024.4532
1689212417919,1024.4502
1689212417949,1024.4469
1689212417987,1024.441
1689212418009,1024.4452
1689212418047,1024.437
1689212418089,1024.4364
1689212418121,1024.4432
1689212418148,1024.4402
1689212418188,1024.4448
1689212418207,1024.4576
1689212418251,1024.4667
1689212418286,1024.4591
1689212418307,1024.4279
1689212418349,1024.4052
1689212418387,1024.4199
1689212418407,1024.4338
1689212418448,1024.4539
1689212418487,1024.4541
1689212418507,1024.4473
1689212418561,1024.444
1689212418587,1024.4364
1689212418607,1024.4354
1689212418663,1024.4308
1689212418686,1024.43
1689212418710,1024.4296
1689212418749,1024.4325
1689212418788,1024.4323
1689212418806,1024.4261
1689212418848,1024.4263
1689212418888,1024.4343
1689212418907,1024.4233
1689212418951,1024.4269
1689212418987,1024.4231
1689212419007,1024.4226
1689212419048,1024.4333
1689212419087,1024.4318
1689212419108,1024.4413
1689212419157,1024.4474
1689212419187,1024.4487
1689212419208,1024.4484
1689212419248,1024.4502
1689212419288,1024.4403
1689212419308,1024.4335
1689212419347,1024.4318
1689212419389,1024.4381
1689212419411,1024.4507
1689212419447,1024.4519
1689212419488,1024.4429
1689212419507,1024.4414
1689212419545,1024.4457
1689212419590,1024.4368
1689212419605,1024.4366
1689212419647,1024.4424
1689212419688,1024.4373
1689212419710,1024.4192
1689212419747,1024.421
1689212419789,1024.42
1689212419807,1024.4165
1689212419846,1024.4196
1689212419887,1024.4294
1689212419907,1024.4482
1689212419948,1024.448
1689212419985,1024.4452
1689212420006,1024.4307
1689212420048,1024.4181
1689212420085,1024.4062
1689212420107,1024.4236
1689212420146,1024.4326
1689212420185,1024.4303
1689212420209,1024.4167
1689212420245,1024.4114
1689212420287,1024.4187
1689212420305,1024.4088
1689212420347,1024.4044
1689212420387,1024.4279
1689212420405,1024.4365
1689212420448,1024.4354
1689212420487,1024.4402
1689212420508,1024.453
1689212420545,1024.4583
1689212420586,1024.4563
1689212420629,1024.4554
1689212420644,1024.4681
1689212420688,1024.4685
1689212420711,1024.4656
1689212420751,1024.4481
1689212420786,1024.4468
1689212420805,1024.4438
1689212420845,1024.4333
1689212420888,1024.4376
1689212420910,1024.4513
1689212420946,1024.4639
1689212420988,1024.4579
1689212421006,1024.4471
1689212421045,1024.4496
1689212421085,1024.4518
1689212421106,1024.4578
1689212421146,1024.4656
1689212421185,1024.4597
1689212421206,1024.4546
1689212421245,1024.4569
1689212421287,1024.4518
1689212421309,1024.4375
1689212421348,1024.4315
1689212421387,1024.4156
1689212421405,1024.4247
1689212421448,1024.4247
1689212421483,1024.4224
1689212421508,1024.4258
1689212421548,1024.4236
1689212421586,1024.4205
1689212421605,1024.4103
1689212421645,1024.4233
1689212421691,1024.4305
1689212421724,1024.429
1689212421748,1024.4253
1689212421787,1024.4167
1689212421829,1024.4128
1689212421847,1024.4177
1689212421885,1024.4203
1689212421925,1024.4121
1689212421947,1024.4219
1689212421985,1024.4238
1689212422034,1024.4153
1689212422045,1024.421
1689212422084,1024.4114
1689212422130,1024.4104
1689212422145,1024.4028
1689212422185,1024.4033
1689212422226,1024.4019
1689212422249,1024.4004
1689212422284,1024.3911
1689212422326,1024.3958
1689212422348,1024.4027
1689212422385,1024.3981
1689212422424,1024.3951
1689212422444,1024.3981
1689212422487,1024.3899
1689212422525,1024.3945
1689212422546,1024.3969
1689212422584,1024.393
1689212422634,1024.3876
1689212422647,1024.3992
1689212422683,1024.4066
1689212422723,1024.4075
1689212422743,1024.4032
1689212422783,1024.3992
1689212422823,1024.4009
1689212422844,1024.4017
1689212422884,1024.4012
1689212422923,1024.4043
1689212422944,1024.3999
1689212422983,1024.4027
1689212423023,1024.3999
1689212423043,1024.4003
1689212423082,1024.4004
1689212423123,1024.3994
1689212423142,1024.388
1689212423183,1024.3837
1689212423222,1024.3795
1689212423243,1024.3848
1689212423282,1024.3821
1689212423325,1024.3909
1689212423356,1024.3861
1689212423392,1024.3855
1689212423458,1024.3793
1689212423458,1024.3889
1689212423485,1024.3848
1689212423522,1024.3909
1689212423543,1024.3911
1689212423583,1024.3948
1689212423622,1024.3986
1689212423645,1024.3922
1689212423683,1024.399
1689212423722,1024.3923
1689212423743,1024.386
1689212423782,1024.39
1689212423822,1024.3885
1689212423843,1024.3835
1689212423882,1024.3832
1689212423922,1024.3732
1689212423942,1024.3751
1689212423982,1024.3716
1689212424022,1024.3748
1689212424043,1024.3751
1689212424083,1024.3796
1689212424123,1024.3807
1689212424143,1024.3749
1689212424183,1024.3744
1689212424223,1024.3813
1689212424245,1024.3848
1689212424282,1024.3756
