1689212576555,1024.5608
1689212576561,1024.5674
1689212576598,1024.5697
1689212576638,1024.5731
1689212576658,1024.5624
1689212576698,1024.5597
1689212576738,1024.5621
1689212576758,1024.5608
1689212576798,1024.567
1689212576838,1024.5647
1689212576858,1024.5498
1689212576898,1024.5483
1689212576938,1024.5492
1689212576958,1024.5553
1689212576998,1024.562
1689212577039,1024.5647
1689212577058,1024.5626
1689212577098,1024.5653
1689212577138,1024.5719
1689212577158,1024.5662
1689212577198,1024.5625
1689212577219,1024.5688
1689212577258,1024.5726
1689212577298,1024.5742
1689212577338,1024.5742
1689212577364,1024.5706
1689212577400,1024.5691
1689212577437,1024.5688
1689212577458,1024.5839
1689212577517,1024.5891
1689212577537,1024.5879
1689212577558,1024.6005
1689212577603,1024.5985
1689212577643,1024.6016
1689212577672,1024.6099
1689212577699,1024.6078
1689212577785,1024.5964
1689212577785,1024.5914
1689212577797,1024.5979
1689212577838,1024.5991
1689212577905,1024.5884
1689212577905,1024.595
1689212577952,1024.5897
1689212577962,1024.5864
1689212577998,1024.5844
1689212578038,1024.5916
1689212578058,1024.5892
1689212578118,1024.5951
1689212578138,1024.5973
1689212578158,1024.5977
1689212578306,1024.6104
1689212578333,1024.6212
1689212578360,1024.621
1689212578398,1024.6157
1689212578423,1024.6099
1689212578468,1024.6183
1689212578510,1024.612
1689212578518,1024.6067
1689212578558,1024.604
1689212578599,1024.6118
1689212578623,1024.6047
1689212578658,1024.6041
1689212578682,1024.6135
1689212578717,1024.6104
1689212578759,1024.6095
1689212578798,1024.5935
1689212578817,1024.5925
1689212578858,1024.592
1689212578878,1024.5842
1689212578918,1024.5792
1689212578979,1024.5859
1689212578999,1024.5879
1689212579024,1024.6064
1689212579061,1024.5808
1689212579101,1024.5901
1689212579120,1024.5903
1689212579161,1024.5908
1689212579199,1024.5908
1689212579219,1024.59
1689212579258,1024.5908
1689212579300,1024.5972
1689212579321,1024.5964
1689212579358,1024.5854
1689212579399,1024.589
1689212579421,1024.5953
1689212579460,1024.5967
1689212579497,1024.6063
1689212579519,1024.6056
1689212579559,1024.5946
1689212579599,1024.5787
1689212579619,1024.5547
1689212579660,1024.5531
1689212579700,1024.5764
1689212579721,1024.5857
1689212579760,1024.5862
1689212579805,1024.5779
1689212579828,1024.5779
1689212579858,1024.5851
1689212579904,1024.5931
1689212579917,1024.5983
1689212579959,1024.5865
1689212580002,1024.577
1689212580025,1024.5708
1689212580064,1024.5695
1689212580098,1024.564
1689212580119,1024.5809
1689212580160,1024.5845
1689212580199,1024.5698
1689212580218,1024.5419
1689212580270,1024.5605
1689212580309,1024.5808
1689212580316,1024.5846
1689212580360,1024.5847
1689212580399,1024.5869
1689212580418,1024.5847
1689212580459,1024.583
1689212580503,1024.594
1689212580517,1024.5999
1689212580558,1024.6091
1689212580604,1024.6077
1689212580621,1024.6072
1689212580662,1024.6106
1689212580697,1024.6161
1689212580721,1024.6028
1689212580757,1024.5948
1689212580799,1024.6006
1689212580818,1024.6011
1689212580862,1024.6003
1689212580897,1024.6044
1689212580919,1024.5952
1689212580957,1024.603
1689212581002,1024.6104
1689212581024,1024.6003
1689212581064,1024.6062
1689212581096,1024.6034
1689212581117,1024.6019
1689212581156,1024.6001
1689212581199,1024.5935
1689212581217,1024.5708
1689212581261,1024.5851
1689212581297,1024.599
1689212581319,1024.6064
1689212581357,1024.6084
1689212581397,1024.6135
1689212581418,1024.6191
1689212581458,1024.6249
1689212581501,1024.6302
1689212581519,1024.6311
1689212581558,1024.6292
1689212581602,1024.6282
1689212581617,1024.6235
1689212581658,1024.6156
1689212581698,1024.6147
1689212581719,1024.6252
1689212581757,1024.6368
1689212581798,1024.6296
1689212581822,1024.6047
1689212581857,1024.6206
1689212581902,1024.6292
1689212581918,1024.6351
1689212581956,1024.6248
1689212582000,1024.6094
1689212582017,1024.6086
1689212582062,1024.6016
1689212582097,1024.6102
1689212582116,1024.6184
1689212582156,1024.6292
1689212582197,1024.6046
1689212582217,1024.5911
1689212582258,1024.604
1689212582297,1024.615
1689212582318,1024.619
1689212582361,1024.6271
1689212582396,1024.6302
1689212582415,1024.6294
1689212582456,1024.629
1689212582495,1024.6317
1689212582515,1024.6226
1689212582556,1024.6349
1689212582595,1024.6335
1689212582617,1024.6205
1689212582656,1024.6179
1689212582697,1024.6238
1689212582728,1024.6161
1689212582759,1024.6168
1689212582796,1024.6173
1689212582817,1024.6195
1689212582859,1024.6288
1689212582896,1024.6193
1689212582918,1024.6189
1689212582959,1024.6097
1689212582996,1024.5989
1689212583017,1024.5999
1689212583067,1024.6052
1689212583101,1024.6041
1689212583122,1024.5876
1689212583158,1024.5841
1689212583200,1024.5917
1689212583220,1024.6055
1689212583262,1024.6127
1689212583299,1024.6155
1689212583316,1024.6143
1689212583359,1024.6179
1689212583401,1024.626
1689212583419,1024.6312
1689212583457,1024.6245
1689212583495,1024.6184
1689212583515,1024.6329
1689212583555,1024.6365
1689212583598,1024.63
1689212583625,1024.6023
1689212583658,1024.5875
1689212583697,1024.5869
1689212583718,1024.6008
1689212583755,1024.6145
1689212583800,1024.6134
1689212583816,1024.6194
1689212583856,1024.6154
1689212583899,1024.612
1689212583918,1024.6143
1689212583961,1024.6124
1689212583996,1024.6118
1689212584022,1024.6129
1689212584058,1024.6085
1689212584095,1024.6124
1689212584117,1024.5978
1689212584158,1024.5963
1689212584196,1024.611
1689212584216,1024.6189
1689212584258,1024.6222
1689212584299,1024.623
1689212584315,1024.6321
1689212584356,1024.6433
1689212584397,1024.6443
1689212584432,1024.6587
1689212584457,1024.6539
1689212584498,1024.6648
1689212584521,1024.6525
1689212584558,1024.6384
1689212584603,1024.6293
1689212584615,1024.6195
1689212584656,1024.617
1689212584697,1024.6094
1689212584717,1024.6235
1689212584761,1024.6292
1689212584795,1024.6252
1689212584819,1024.6315
1689212584868,1024.6222
1689212584895,1024.6233
1689212584915,1024.6183
1689212584955,1024.6155
1689212584995,1024.6235
1689212585015,1024.6129
1689212585055,1024.6029
1689212585096,1024.609
1689212585117,1024.6193
1689212585156,1024.6261
1689212585199,1024.6274
1689212585219,1024.6296
1689212585255,1024.6372
1689212585299,1024.6343
1689212585315,1024.635
1689212585355,1024.6357
1689212585399,1024.6433
1689212585415,1024.6516
1689212585455,1024.656
1689212585495,1024.6606
1689212585517,1024.6656
1689212585557,1024.6666
1689212585603,1024.6453
1689212585617,1024.6329
1689212585655,1024.6158
1689212585695,1024.6104
1689212585716,1024.6492
1689212585760,1024.6371
1689212585795,1024.6277
1689212585818,1024.6298
1689212585855,1024.633
1689212585897,1024.6359
1689212585917,1024.6255
1689212585959,1024.6256
1689212585996,1024.6171
1689212586016,1024.596
1689212586061,1024.6106
1689212586094,1024.6212
1689212586120,1024.625
1689212586158,1024.6179
1689212586196,1024.6111
1689212586226,1024.616
1689212586263,1024.6218
1689212586294,1024.6288
1689212586314,1024.6267
1689212586367,1024.6436
1689212586395,1024.6593
1689212586416,1024.6652
1689212586454,1024.657
1689212586496,1024.6433
1689212586523,1024.6361
1689212586554,1024.6398
1689212586594,1024.6477
1689212586615,1024.6461
1689212586659,1024.6401
1689212586695,1024.6389
1689212586715,1024.6394
1689212586753,1024.6317
1689212586796,1024.61
1689212586822,1024.6211
1689212586855,1024.6376
1689212586894,1024.6459
1689212586914,1024.6416
1689212586955,1024.6423
1689212586997,1024.6508
1689212587014,1024.6407
1689212587059,1024.6307
1689212587100,1024.6333
1689212587114,1024.6301
1689212587160,1024.6224
1689212587196,1024.6149
1689212587221,1024.6345
1689212587255,1024.6229
1689212587293,1024.6067
1689212587317,1024.6223
1689212587354,1024.6321
1689212587394,1024.6301
1689212587418,1024.6372
1689212587456,1024.6372
1689212587493,1024.6455
1689212587514,1024.656
1689212587553,1024.666
1689212587594,1024.6682
1689212587617,1024.6699
1689212587654,1024.6671
1689212587696,1024.6665
1689212587716,1024.6625
1689212587753,1024.6488
1689212587793,1024.6311
1689212587813,1024.6229
1689212587852,1024.6304
1689212587901,1024.6326
1689212587913,1024.6414
1689212587953,1024.6532
1689212587993,1024.6449
1689212588014,1024.6412
1689212588054,1024.6396
1689212588094,1024.6362
1689212588114,1024.6312
1689212588156,1024.6195
1689212588200,1024.6289
1689212588222,1024.6266
1689212588258,1024.6235
1689212588298,1024.6241
1689212588317,1024.6255
1689212588354,1024.6327
1689212588393,1024.6405
1689212588412,1024.6418
1689212588452,1024.6406
1689212588495,1024.6409
1689212588515,1024.6372
1689212588553,1024.6437
1689212588593,1024.6488
1689212588613,1024.6411
1689212588659,1024.6486
1689212588696,1024.6539
1689212588713,1024.6584
1689212588754,1024.6523
1689212588793,1024.6532
1689212588814,1024.6475
1689212588855,1024.6423
1689212588897,1024.6282
1689212588914,1024.6127
1689212588955,1024.6116
1689212589000,1024.6129
1689212589012,1024.6088
1689212589053,1024.6064
1689212589097,1024.6205
1689212589114,1024.6268
1689212589157,1024.6171
1689212589195,1024.6227
1689212589224,1024.6222
1689212589254,1024.6166
1689212589294,1024.6145
1689212589313,1024.618
1689212589353,1024.6323
1689212589395,1024.6208
1689212589417,1024.6249
1689212589453,1024.625
1689212589493,1024.6354
1689212589515,1024.6401
1689212589552,1024.6466
1689212589593,1024.6476
1689212589613,1024.6514
1689212589657,1024.6532
1689212589693,1024.6597
1689212589713,1024.657
1689212589758,1024.6597
1689212589792,1024.6583
1689212589814,1024.6619
1689212589854,1024.6725
1689212589894,1024.6675
1689212589913,1024.6611
1689212589958,1024.6345
1689212589992,1024.609
1689212590017,1024.6141
1689212590053,1024.636
1689212590099,1024.6475
1689212590112,1024.6458
1689212590153,1024.6436
1689212590205,1024.6431
1689212590212,1024.6434
1689212590254,1024.6326
1689212590293,1024.6348
1689212590313,1024.6362
1689212590355,1024.6359
1689212590403,1024.6406
1689212590412,1024.6323
1689212590453,1024.6118
1689212590493,1024.6217
1689212590517,1024.6313
1689212590555,1024.6394
1689212590593,1024.651
1689212590615,1024.6512
1689212590659,1024.6428
1689212590694,1024.6503
1689212590714,1024.6597
1689212590754,1024.6702
1689212590792,1024.6614
1689212590813,1024.6539
1689212590856,1024.6477
1689212590894,1024.6503
1689212590922,1024.6669
1689212590953,1024.6586
1689212590992,1024.6545
1689212591012,1024.6399
1689212591057,1024.6288
1689212591092,1024.6288
1689212591113,1024.6414
1689212591156,1024.6539
1689212591191,1024.6548
1689212591211,1024.6593
1689212591251,1024.6554
1689212591292,1024.6411
1689212591314,1024.6427
1689212591354,1024.6361
1689212591393,1024.6494
1689212591412,1024.6476
1689212591452,1024.6382
1689212591491,1024.638
1689212591513,1024.6405
1689212591553,1024.634
1689212591593,1024.6456
1689212591612,1024.653
1689212591652,1024.665
1689212591695,1024.6615
1689212591720,1024.665
1689212591758,1024.6626
1689212591799,1024.6638
1689212591811,1024.6664
1689212591851,1024.6812
1689212591893,1024.6793
1689212591914,1024.6827
1689212591951,1024.6655
1689212591991,1024.6431
1689212592015,1024.6322
1689212592057,1024.6362
1689212592091,1024.6338
1689212592119,1024.618
1689212592152,1024.6313
1689212592192,1024.633
1689212592218,1024.62
1689212592252,1024.6177
1689212592293,1024.616
1689212592310,1024.623
1689212592353,1024.6272
1689212592396,1024.6243
1689212592412,1024.6241
1689212592452,1024.6237
1689212592497,1024.6215
1689212592511,1024.608
1689212592551,1024.5995
1689212592591,1024.6089
1689212592615,1024.6232
1689212592652,1024.6254
1689212592697,1024.6342
1689212592710,1024.6415
1689212592754,1024.6393
1689212592796,1024.6418
1689212592814,1024.6381
1689212592852,1024.6499
1689212592897,1024.6562
1689212592912,1024.6478
1689212592961,1024.6475
1689212592990,1024.6554
1689212593012,1024.6505
1689212593053,1024.6407
1689212593094,1024.6233
1689212593110,1024.6068
1689212593154,1024.6139
1689212593193,1024.6244
1689212593212,1024.6337
1689212593258,1024.6415
1689212593295,1024.6414
1689212593312,1024.6445
1689212593350,1024.6307
1689212593393,1024.6256
1689212593412,1024.6287
1689212593451,1024.6614
1689212593490,1024.626
1689212593514,1024.6064
1689212593550,1024.63
1689212593590,1024.6465
1689212593610,1024.6223
1689212593658,1024.619
1689212593692,1024.6307
1689212593712,1024.6483
1689212593751,1024.6444
1689212593790,1024.6476
1689212593810,1024.6454
1689212593851,1024.6492
1689212593895,1024.6526
1689212593913,1024.6547
1689212593951,1024.6597
1689212594006,1024.6552
1689212594012,1024.6412
1689212594051,1024.6368
1689212594091,1024.646
1689212594111,1024.6536
1689212594151,1024.6505
1689212594189,1024.6489
1689212594210,1024.6458
1689212594256,1024.6323
1689212594292,1024.6123
1689212594312,1024.6119
1689212594351,1024.6213
1689212594390,1024.6266
1689212594410,1024.6398
1689212594452,1024.6425
1689212594490,1024.6226
1689212594511,1024.623
1689212594552,1024.6345
1689212594589,1024.6453
1689212594610,1024.6473
1689212594650,1024.654
1689212594692,1024.6597
1689212594715,1024.6584
1689212594751,1024.6531
1689212594791,1024.6549
1689212594813,1024.658
1689212594850,1024.6571
1689212594890,1024.6573
1689212594910,1024.6592
1689212594954,1024.6731
1689212594992,1024.6622
1689212595017,1024.6462
1689212595050,1024.6335
1689212595091,1024.6371
1689212595117,1024.6438
1689212595151,1024.6498
1689212595192,1024.6523
1689212595219,1024.6406
1689212595253,1024.6421
1689212595295,1024.6327
1689212595311,1024.6315
1689212595351,1024.628
1689212595391,1024.6167
1689212595421,1024.6012
1689212595451,1024.5985
1689212595501,1024.6063
1689212595510,1024.6049
1689212595554,1024.6277
1689212595591,1024.6296
1689212595613,1024.6221
1689212595650,1024.6168
1689212595690,1024.6238
1689212595714,1024.6346
1689212595749,1024.6428
1689212595789,1024.649
1689212595810,1024.6442
1689212595850,1024.6461
1689212595891,1024.6533
1689212595909,1024.6555
1689212595952,1024.6523
1689212595993,1024.6487
1689212596010,1024.6516
1689212596050,1024.6542
1689212596092,1024.6357
1689212596109,1024.6252
1689212596149,1024.6067
1689212596189,1024.6143
1689212596211,1024.6447
1689212596249,1024.648
1689212596290,1024.635
1689212596311,1024.6373
1689212596350,1024.6433
1689212596389,1024.6448
1689212596410,1024.6365
1689212596454,1024.6283
1689212596491,1024.6278
1689212596513,1024.6187
1689212596549,1024.6255
1689212596592,1024.6608
1689212596611,1024.6346
1689212596649,1024.6038
1689212596690,1024.6073
1689212596712,1024.6248
1689212596750,1024.6184
1689212596791,1024.6212
1689212596810,1024.624
1689212596851,1024.6406
1689212596890,1024.6531
1689212596910,1024.6487
1689212596957,1024.6572
1689212596991,1024.6587
1689212597012,1024.658
1689212597050,1024.6569
1689212597089,1024.6743
1689212597110,1024.6715
1689212597160,1024.648
1689212597188,1024.635
1689212597208,1024.6417
1689212597251,1024.6514
1689212597289,1024.6685
1689212597315,1024.6664
1689212597351,1024.6531
1689212597389,1024.6483
1689212597409,1024.6437
1689212597449,1024.6385
1689212597487,1024.6365
1689212597512,1024.6343
1689212597552,1024.6323
1689212597592,1024.6187
1689212597609,1024.6184
1689212597649,1024.6274
1689212597689,1024.6442
1689212597716,1024.6466
1689212597750,1024.6376
1689212597789,1024.6415
1689212597813,1024.6461
1689212597854,1024.6453
1689212597888,1024.6455
1689212597910,1024.6453
1689212597950,1024.6437
1689212597991,1024.6497
1689212598017,1024.6506
1689212598047,1024.6611
1689212598089,1024.662
1689212598110,1024.6635
1689212598148,1024.6437
1689212598195,1024.6116
1689212598211,1024.5933
1689212598249,1024.6176
1689212598288,1024.6447
1689212598313,1024.6426
1689212598350,1024.6362
1689212598388,1024.6271
1689212598408,1024.6306
1689212598449,1024.6227
1689212598488,1024.6268
1689212598507,1024.6328
1689212598547,1024.6194
1689212598587,1024.6155
1689212598609,1024.6354
1689212598651,1024.6179
1689212598699,1024.6061
1689212598709,1024.6288
1689212598747,1024.6399
1689212598790,1024.6454
1689212598817,1024.646
1689212598853,1024.6421
1689212598888,1024.6498
1689212598907,1024.6511
1689212598954,1024.6583
1689212598987,1024.6635
1689212599015,1024.6641
1689212599049,1024.6512
1689212599088,1024.631
1689212599108,1024.6287
1689212599153,1024.6224
1689212599190,1024.6174
1689212599210,1024.6261
1689212599267,1024.6382
1689212599289,1024.6443
1689212599310,1024.6372
1689212599348,1024.6351
1689212599389,1024.6321
1689212599409,1024.6335
1689212599450,1024.6306
1689212599488,1024.6239
1689212599510,1024.631
1689212599548,1024.6418
1689212599595,1024.6353
1689212599610,1024.6392
1689212599649,1024.6439
1689212599689,1024.6392
1689212599718,1024.6305
1689212599747,1024.6426
1689212599790,1024.6436
1689212599810,1024.6389
1689212599847,1024.6401
1689212599888,1024.6467
1689212599915,1024.6458
1689212599951,1024.6342
1689212599986,1024.6373
1689212600011,1024.6428
1689212600046,1024.6453
1689212600089,1024.6538
1689212600127,1024.6426
1689212600148,1024.6492
1689212600191,1024.6567
1689212600242,1024.654
1689212600249,1024.6548
1689212600289,1024.6534
1689212600331,1024.6565
1689212600351,1024.6562
1689212600387,1024.6659
1689212600432,1024.6628
1689212600450,1024.6539
1689212600486,1024.6454
1689212600528,1024.6443
1689212600555,1024.6311
1689212600586,1024.6273
1689212600630,1024.6206
1689212600648,1024.6302
1689212600686,1024.635
1689212600732,1024.6321
1689212600749,1024.6285
1689212600790,1024.6298
1689212600829,1024.6469
1689212600853,1024.64
1689212600886,1024.6556
1689212600929,1024.662
1689212600949,1024.6504
1689212600993,1024.6554
1689212601028,1024.6544
1689212601046,1024.6641
1689212601087,1024.6727
1689212601127,1024.661
1689212601148,1024.6635
1689212601189,1024.646
1689212601230,1024.6309
1689212601252,1024.6355
1689212601286,1024.6285
1689212601335,1024.6262
1689212601348,1024.6257
1689212601388,1024.6183
1689212601429,1024.616
1689212601450,1024.6229
1689212601489,1024.6279
1689212601526,1024.6296
1689212601549,1024.6213
1689212601590,1024.6057
1689212601626,1024.6034
1689212601647,1024.6022
1689212601688,1024.6178
1689212601732,1024.6276
1689212601747,1024.6384
1689212601789,1024.6349
1689212601828,1024.6436
1689212601848,1024.6461
1689212601888,1024.6421
1689212601926,1024.6349
1689212601949,1024.6528
1689212601989,1024.6455
1689212602029,1024.6416
1689212602048,1024.6438
1689212602092,1024.6377
1689212602126,1024.627
1689212602148,1024.617
1689212602185,1024.6067
1689212602227,1024.6201
1689212602247,1024.6277
1689212602290,1024.6307
1689212602326,1024.6334
1689212602344,1024.6423
1689212602389,1024.6299
1689212602425,1024.6228
1689212602445,1024.6237
1689212602489,1024.6273
1689212602528,1024.616
1689212602554,1024.6274
1689212602585,1024.6493
1689212602626,1024.6161
1689212602646,1024.6078
1689212602687,1024.618
1689212602727,1024.6317
1689212602746,1024.643
1689212602788,1024.634
1689212602826,1024.6335
1689212602848,1024.6372
1689212602885,1024.6418
1689212602929,1024.6472
1689212602948,1024.6506
1689212602999,1024.649
1689212603025,1024.6534
1689212603049,1024.6598
1689212603089,1024.6669
1689212603127,1024.655
1689212603145,1024.6487
1689212603191,1024.6289
1689212603224,1024.6339
1689212603253,1024.6226
1689212603288,1024.6165
1689212603325,1024.6277
1689212603348,1024.6407
1689212603385,1024.6525
1689212603425,1024.648
1689212603458,1024.6367
1689212603484,1024.6321
1689212603527,1024.6337
1689212603545,1024.6328
1689212603587,1024.6306
1689212603624,1024.6335
1689212603649,1024.6396
1689212603685,1024.6302
1689212603743,1024.6313
1689212603747,1024.6337
1689212603786,1024.6311
1689212603824,1024.6296
1689212603845,1024.644
1689212603885,1024.6567
1689212603927,1024.6545
1689212603944,1024.668
1689212603988,1024.6754
1689212604029,1024.6691
1689212604053,1024.6669
1689212604084,1024.6794
1689212604127,1024.6742
1689212604147,1024.6603
1689212604189,1024.6481
1689212604224,1024.6404
1689212604249,1024.6353
1689212604287,1024.6288
1689212604335,1024.626
1689212604349,1024.6403
1689212604386,1024.642
1689212604432,1024.6521
1689212604446,1024.6447
1689212604490,1024.6455
1689212604530,1024.6432
1689212604547,1024.6388
1689212604586,1024.6376
1689212604629,1024.6279
1689212604646,1024.6382
1689212604685,1024.624
1689212604725,1024.613
1689212604745,1024.6326
1689212604787,1024.6338
1689212604826,1024.6327
1689212604848,1024.6252
1689212604888,1024.6228
1689212604926,1024.6284
1689212604945,1024.6356
1689212604992,1024.6382
1689212605025,1024.6571
1689212605046,1024.6558
1689212605084,1024.6487
1689212605124,1024.6481
1689212605143,1024.6638
1689212605185,1024.666
1689212605228,1024.6545
1689212605244,1024.634
1689212605285,1024.6228
1689212605325,1024.6282
1689212605343,1024.6407
1689212605384,1024.6357
1689212605425,1024.6318
1689212605445,1024.6335
1689212605484,1024.6359
1689212605524,1024.6426
1689212605544,1024.6362
1689212605589,1024.6356
1689212605624,1024.6462
1689212605645,1024.6398
1689212605686,1024.6387
1689212605728,1024.6364
1689212605743,1024.6161
1689212605790,1024.6285
1689212605823,1024.6364
1689212605844,1024.6383
1689212605884,1024.6261
1689212605925,1024.6309
1689212605945,1024.6376
1689212605994,1024.6549
1689212606024,1024.6608
1689212606056,1024.6599
1689212606082,1024.6705
1689212606125,1024.6647
1689212606145,1024.6545
1689212606188,1024.6547
1689212606229,1024.6609
1689212606244,1024.6617
1689212606285,1024.6628
1689212606327,1024.657
1689212606344,1024.6411
1689212606384,1024.6165
1689212606426,1024.6035
1689212606443,1024.6062
1689212606486,1024.6158
1689212606524,1024.6239
1689212606542,1024.632
1689212606583,1024.6415
1689212606624,1024.645
1689212606643,1024.6562
1689212606687,1024.6757
1689212606725,1024.6766
1689212606743,1024.6589
1689212606785,1024.6438
1689212606824,1024.6304
1689212606845,1024.6202
1689212606883,1024.6338
1689212606924,1024.663
1689212606944,1024.652
1689212606987,1024.6276
1689212607024,1024.6173
1689212607046,1024.601
1689212607082,1024.5972
1689212607124,1024.5908
1689212607147,1024.5966
1689212607183,1024.6084
1689212607223,1024.6069
1689212607244,1024.6045
1689212607283,1024.6084
1689212607327,1024.6001
1689212607342,1024.6075
1689212607384,1024.617
1689212607427,1024.6151
1689212607447,1024.6139
1689212607484,1024.603
1689212607522,1024.5917
1689212607548,1024.5878
1689212607583,1024.5896
1689212607622,1024.5836
1689212607642,1024.584
1689212607681,1024.5879
1689212607721,1024.5894
1689212607744,1024.5771
1689212607781,1024.5739
1689212607822,1024.5696
1689212607841,1024.5718
1689212607881,1024.5665
1689212607921,1024.5529
1689212607941,1024.565
1689212607983,1024.5706
1689212608021,1024.5731
1689212608041,1024.5741
1689212608083,1024.5776
1689212608121,1024.5781
1689212608141,1024.5846
1689212608183,1024.583
1689212608221,1024.5809
1689212608241,1024.5748
1689212608287,1024.5735
1689212608350,1024.5731
1689212608350,1024.5759
1689212608417,1024.5737
1689212608438,1024.5669
1689212608441,1024.5648
1689212608481,1024.5679
1689212608521,1024.5739
1689212608541,1024.5703
1689212608580,1024.571
1689212608621,1024.583
1689212608641,1024.58
1689212608681,1024.5784
1689212608721,1024.5774
1689212608740,1024.5715
1689212608780,1024.5697
1689212608821,1024.5774
1689212608842,1024.5859
1689212608880,1024.5897
1689212608921,1024.5997
1689212608940,1024.5913
1689212608981,1024.5822
1689212609020,1024.5793
1689212609041,1024.5809
