1689212226163,1024.5911
1689212226196,1024.5933
1689212226219,1024.5969
1689212226257,1024.5968
1689212226275,1024.5961
1689212226311,1024.5917
1689212226351,1024.5885
1689212226375,1024.594
1689212226411,1024.5988
1689212226453,1024.6123
1689212226471,1024.6123
1689212226511,1024.6112
1689212226553,1024.6082
1689212226572,1024.6047
1689212226611,1024.6034
1689212226654,1024.5974
1689212226672,1024.5967
1689212226711,1024.5931
1689212226753,1024.5944
1689212226773,1024.5975
1689212226813,1024.6002
1689212226852,1024.609
1689212226872,1024.6111
1689212226910,1024.6035
1689212226951,1024.6014
1689212226976,1024.606
1689212227011,1024.6091
1689212227052,1024.6047
1689212227075,1024.603
1689212227112,1024.5979
1689212227152,1024.6027
1689212227171,1024.6019
1689212227212,1024.5928
1689212227252,1024.6022
1689212227274,1024.6061
1689212227311,1024.6053
1689212227351,1024.6101
1689212227372,1024.6107
1689212227411,1024.6002
1689212227451,1024.603
1689212227472,1024.607
1689212227514,1024.6035
1689212227552,1024.6052
1689212227571,1024.607
1689212227612,1024.6067
1689212227651,1024.6095
1689212227671,1024.6006
1689212227712,1024.6025
1689212227752,1024.6088
1689212227771,1024.6066
1689212227811,1024.6106
1689212227853,1024.61
1689212227874,1024.6091
1689212227911,1024.6068
1689212227950,1024.5961
1689212227971,1024.5979
1689212228012,1024.5974
1689212228051,1024.6057
1689212228076,1024.5977
1689212228111,1024.5968
1689212228151,1024.5969
1689212228170,1024.6069
1689212228210,1024.6057
1689212228250,1024.6069
1689212228271,1024.609
1689212228310,1024.6052
1689212228350,1024.601
1689212228370,1024.6008
1689212228411,1024.6016
1689212228450,1024.6033
1689212228470,1024.6085
1689212228510,1024.6182
1689212228549,1024.6208
1689212228570,1024.6208
1689212228610,1024.6238
1689212228650,1024.6183
1689212228670,1024.6162
1689212228710,1024.6257
1689212228751,1024.6377
1689212228773,1024.64
1689212228823,1024.6444
1689212228852,1024.6526
1689212228870,1024.6372
1689212228910,1024.6451
1689212228950,1024.6511
1689212228970,1024.6494
1689212229010,1024.6438
1689212229054,1024.6427
1689212229069,1024.6361
1689212229110,1024.6399
1689212229158,1024.6333
1689212229221,1024.6406
1689212229221,1024.6539
1689212229316,1024.6436
1689212229316,1024.6478
1689212229316,1024.6465
1689212229410,1024.6447
1689212229410,1024.6469
1689212229410,1024.6431
1689212229460,1024.633
1689212229469,1024.6346
1689212229509,1024.6415
1689212229551,1024.6469
1689212229572,1024.6488
1689212229610,1024.6498
1689212229730,1024.6355
1689212229751,1024.6243
1689212229791,1024.6257
1689212229830,1024.6401
1689212229850,1024.6483
1689212229895,1024.6527
1689212229931,1024.6521
1689212229952,1024.6548
1689212229991,1024.651
1689212230032,1024.6567
1689212230050,1024.6814
1689212230091,1024.6868
1689212230135,1024.6892
1689212230150,1024.6892
1689212230195,1024.678
1689212230212,1024.6519
1689212230249,1024.6488
1689212230309,1024.6488
1689212230331,1024.6437
1689212230351,1024.6531
1689212230392,1024.6523
1689212230434,1024.6521
1689212230450,1024.6548
1689212230492,1024.6539
1689212230548,1024.649
1689212230552,1024.6431
1689212230590,1024.6536
1689212230632,1024.6589
1689212230651,1024.6577
1689212230703,1024.6615
1689212230731,1024.6667
1689212230754,1024.6666
1689212230803,1024.6643
1689212230829,1024.6594
1689212230851,1024.656
1689212230891,1024.6572
1689212230931,1024.6597
1689212230951,1024.6604
1689212230996,1024.6746
1689212231032,1024.6704
1689212231051,1024.6788
1689212231094,1024.6842
1689212231147,1024.6832
1689212231150,1024.6711
1689212231192,1024.6475
1689212231232,1024.6414
1689212231252,1024.6465
1689212231291,1024.6504
1689212231348,1024.6594
1689212231349,1024.6638
1689212231392,1024.66
1689212231430,1024.6681
1689212231450,1024.665
1689212231495,1024.6526
1689212231529,1024.6548
1689212231550,1024.6621
1689212231590,1024.689
1689212231629,1024.6792
1689212231649,1024.6774
1689212231690,1024.6713
1689212231729,1024.6527
1689212231750,1024.6592
1689212231791,1024.647
1689212231831,1024.6422
1689212231849,1024.6456
1689212231899,1024.6575
1689212231931,1024.6545
1689212231950,1024.6611
1689212231990,1024.6647
1689212232029,1024.6573
1689212232051,1024.6584
1689212232091,1024.6488
1689212232129,1024.6448
1689212232150,1024.65
1689212232189,1024.6445
1689212232230,1024.6372
1689212232254,1024.6469
1689212232291,1024.655
1689212232330,1024.6672
1689212232349,1024.669
1689212232391,1024.6604
1689212232430,1024.6583
1689212232452,1024.652
1689212232492,1024.6486
1689212232529,1024.6505
1689212232551,1024.6514
1689212232590,1024.6613
1689212232628,1024.6644
1689212232649,1024.666
1689212232696,1024.6584
1689212232733,1024.657
1689212232749,1024.6516
1689212232790,1024.6533
1689212232830,1024.6465
1689212232849,1024.6523
1689212232888,1024.649
1689212232929,1024.6477
1689212232950,1024.6501
1689212232990,1024.6481
1689212233035,1024.644
1689212233048,1024.6516
1689212233091,1024.6516
1689212233129,1024.6589
1689212233149,1024.6539
1689212233190,1024.6478
1689212233228,1024.6547
1689212233249,1024.6515
1689212233291,1024.6477
1689212233328,1024.6445
1689212233349,1024.6451
1689212233390,1024.6367
1689212233429,1024.637
1689212233449,1024.6486
1689212233494,1024.6532
1689212233531,1024.6476
1689212233550,1024.6472
1689212233588,1024.6436
1689212233631,1024.6346
1689212233649,1024.6335
1689212233692,1024.6345
1689212233729,1024.6372
1689212233748,1024.6382
1689212233795,1024.6489
1689212233828,1024.6495
1689212233847,1024.6442
1689212233888,1024.6348
1689212233931,1024.6313
1689212233948,1024.6266
1689212233988,1024.6304
1689212234035,1024.6223
1689212234049,1024.6108
1689212234088,1024.6084
1689212234128,1024.6107
1689212234148,1024.612
1689212234189,1024.6097
1689212234228,1024.6035
1689212234248,1024.6052
1689212234290,1024.6224
1689212234328,1024.627
1689212234348,1024.6295
1689212234392,1024.6323
1689212234433,1024.6248
1689212234455,1024.6274
1689212234489,1024.6218
1689212234531,1024.6279
1689212234551,1024.6396
1689212234589,1024.6382
1689212234630,1024.6326
1689212234648,1024.6201
1689212234689,1024.6248
1689212234729,1024.6223
1689212234747,1024.6277
1689212234789,1024.6276
1689212234830,1024.6279
1689212234848,1024.6355
1689212234889,1024.6235
1689212234927,1024.617
1689212234949,1024.6212
1689212234988,1024.6292
1689212235035,1024.6389
1689212235048,1024.6339
1689212235092,1024.6254
1689212235129,1024.6208
1689212235149,1024.612
1689212235189,1024.6115
1689212235227,1024.6057
1689212235248,1024.6069
1689212235286,1024.6061
1689212235327,1024.6066
1689212235347,1024.6163
1689212235395,1024.6135
1689212235426,1024.6052
1689212235447,1024.5953
1689212235488,1024.596
1689212235527,1024.6044
1689212235548,1024.6018
1689212235591,1024.605
1689212235628,1024.6064
1689212235648,1024.6062
1689212235690,1024.6101
1689212235735,1024.6085
1689212235752,1024.5989
1689212235790,1024.6023
1689212235827,1024.5957
1689212235847,1024.5986
1689212235892,1024.5924
1689212235929,1024.5883
1689212235947,1024.5873
1689212235989,1024.5967
1689212236027,1024.5979
1689212236047,1024.5935
1689212236092,1024.5809
1689212236140,1024.5917
1689212236170,1024.5958
1689212236186,1024.5834
1689212236228,1024.604
1689212236247,1024.6063
1689212236288,1024.6012
1689212236328,1024.584
1689212236347,1024.5765
1689212236387,1024.5708
1689212236427,1024.5742
1689212236447,1024.5651
1689212236487,1024.5662
1689212236527,1024.5612
1689212236548,1024.5626
1689212236587,1024.5597
1689212236631,1024.5472
1689212236647,1024.5537
1689212236688,1024.5636
1689212236727,1024.564
1689212236750,1024.5667
1689212236790,1024.5724
1689212236827,1024.571
1689212236847,1024.5746
1689212236890,1024.5774
1689212236929,1024.5762
1689212236949,1024.5714
1689212236988,1024.571
1689212237029,1024.5581
1689212237046,1024.5544
1689212237087,1024.5554
1689212237127,1024.562
1689212237146,1024.5693
1689212237186,1024.5635
1689212237228,1024.5518
1689212237246,1024.5409
1689212237302,1024.5422
1689212237325,1024.5496
1689212237347,1024.553
1689212237391,1024.5532
1689212237425,1024.5404
1689212237450,1024.542
1689212237488,1024.5399
1689212237535,1024.5251
1689212237550,1024.5208
1689212237595,1024.5217
1689212237625,1024.5204
1689212237648,1024.5112
1689212237695,1024.5145
1689212237727,1024.5004
1689212237746,1024.5085
1689212237785,1024.5103
1689212237828,1024.4962
1689212237846,1024.5021
1689212237887,1024.515
1689212237925,1024.5088
1689212237946,1024.5048
1689212237990,1024.513
1689212238025,1024.5203
1689212238056,1024.5177
1689212238085,1024.5212
1689212238127,1024.5208
1689212238145,1024.5199
1689212238186,1024.516
1689212238226,1024.5149
1689212238253,1024.5037
1689212238288,1024.5176
1689212238328,1024.5256
1689212238348,1024.5149
1689212238392,1024.5011
1689212238424,1024.4895
1689212238445,1024.4869
1689212238490,1024.4935
1689212238526,1024.5045
1689212238547,1024.4934
1689212238586,1024.4912
1689212238627,1024.486
1689212238644,1024.4774
1689212238686,1024.4724
1689212238725,1024.4789
1689212238747,1024.483
1689212238804,1024.4811
1689212238826,1024.4775
1689212238845,1024.4722
1689212238886,1024.4813
1689212238929,1024.4868
1689212238945,1024.4625
1689212238988,1024.4556
1689212239025,1024.464
1689212239048,1024.4694
1689212239086,1024.467
1689212239128,1024.4668
1689212239145,1024.4719
1689212239191,1024.4814
1689212239224,1024.4731
1689212239244,1024.4717
1689212239285,1024.4714
1689212239325,1024.4744
1689212239348,1024.4817
1689212239395,1024.4735
1689212239425,1024.4678
1689212239447,1024.4644
1689212239485,1024.4614
1689212239529,1024.4365
1689212239553,1024.4377
1689212239592,1024.4541
1689212239625,1024.4581
1689212239644,1024.4482
1689212239684,1024.4497
1689212239725,1024.45
1689212239745,1024.4434
1689212239784,1024.4406
1689212239825,1024.4495
1689212239845,1024.4492
1689212239887,1024.4473
1689212239924,1024.4368
1689212239945,1024.4319
1689212240000,1024.4299
1689212240025,1024.4432
1689212240045,1024.4142
1689212240085,1024.4135
1689212240124,1024.4296
1689212240150,1024.4504
1689212240184,1024.4576
1689212240231,1024.4592
1689212240248,1024.4656
1689212240285,1024.4742
1689212240325,1024.4832
1689212240345,1024.4716
1689212240386,1024.4692
1689212240429,1024.4648
1689212240445,1024.4629
1689212240484,1024.4573
1689212240525,1024.456
1689212240544,1024.4684
1689212240589,1024.468
1689212240624,1024.4584
1689212240645,1024.4535
1689212240690,1024.4634
1689212240724,1024.4751
1689212240744,1024.4753
1689212240793,1024.4667
1689212240824,1024.47
1689212240845,1024.4733
1689212240884,1024.4747
1689212240924,1024.471
1689212240943,1024.4686
1689212240984,1024.4757
1689212241025,1024.4828
1689212241045,1024.4883
1689212241085,1024.4769
1689212241125,1024.4746
1689212241145,1024.4857
1689212241184,1024.467
1689212241227,1024.4542
1689212241244,1024.4677
1689212241292,1024.4827
1689212241325,1024.4946
1689212241345,1024.4989
1689212241386,1024.5028
1689212241424,1024.5118
1689212241443,1024.5271
1689212241484,1024.5266
1689212241526,1024.537
1689212241544,1024.5353
1689212241583,1024.5364
1689212241628,1024.5304
1689212241644,1024.5409
1689212241688,1024.5481
1689212241724,1024.5416
1689212241748,1024.5198
1689212241784,1024.5222
1689212241828,1024.5294
1689212241844,1024.5466
1689212241888,1024.5465
1689212241924,1024.5507
1689212241948,1024.5529
1689212241983,1024.5488
1689212242041,1024.5515
1689212242048,1024.5515
1689212242083,1024.5511
1689212242126,1024.5602
1689212242143,1024.5688
1689212242184,1024.5773
1689212242224,1024.5687
1689212242261,1024.5632
1689212242283,1024.5592
1689212242324,1024.5536
1689212242345,1024.5577
1689212242385,1024.5754
1689212242423,1024.5824
1689212242443,1024.5873
1689212242484,1024.5741
1689212242529,1024.5765
1689212242544,1024.5836
1689212242584,1024.5955
1689212242625,1024.5957
1689212242644,1024.6165
1689212242684,1024.6154
1689212242723,1024.6129
1689212242744,1024.617
1689212242783,1024.6201
1689212242826,1024.6213
1689212242842,1024.6271
1689212242885,1024.61
1689212242922,1024.5989
1689212242942,1024.5908
1689212242983,1024.603
1689212243023,1024.609
1689212243044,1024.6041
1689212243085,1024.6211
1689212243126,1024.6216
1689212243143,1024.621
1689212243183,1024.621
1689212243223,1024.6198
1689212243246,1024.6127
1689212243285,1024.604
1689212243326,1024.6001
1689212243346,1024.6188
1689212243383,1024.6128
1689212243426,1024.6085
1689212243445,1024.6135
1689212243482,1024.6171
1689212243522,1024.606
1689212243548,1024.6154
1689212243586,1024.6179
1689212243624,1024.6187
1689212243643,1024.6173
1689212243683,1024.6226
1689212243724,1024.6272
1689212243742,1024.6311
1689212243799,1024.6284
1689212243822,1024.6298
1689212243843,1024.6355
1689212243883,1024.6268
1689212243924,1024.6217
1689212243942,1024.6292
1689212243986,1024.6261
1689212244023,1024.6293
1689212244043,1024.6427
1689212244082,1024.6523
1689212244123,1024.6453
1689212244142,1024.6367
1689212244183,1024.629
1689212244223,1024.6318
1689212244245,1024.6238
1689212244297,1024.6282
1689212244325,1024.6365
1689212244342,1024.6426
1689212244381,1024.6418
1689212244421,1024.6357
1689212244440,1024.6206
1689212244483,1024.604
1689212244525,1024.5986
1689212244541,1024.5997
1689212244581,1024.605
1689212244621,1024.6183
1689212244640,1024.6095
1689212244681,1024.6115
1689212244727,1024.6082
1689212244741,1024.5854
1689212244781,1024.5914
1689212244822,1024.6124
1689212244842,1024.6292
1689212244881,1024.6263
1689212244921,1024.6248
1689212244943,1024.6261
1689212244988,1024.6278
1689212245021,1024.634
1689212245044,1024.6375
1689212245083,1024.6342
1689212245121,1024.6396
1689212245142,1024.6418
1689212245183,1024.6304
1689212245223,1024.637
1689212245242,1024.6309
1689212245284,1024.6305
1689212245322,1024.6361
1689212245342,1024.6366
1689212245384,1024.6287
1689212245424,1024.6227
1689212245441,1024.6307
1689212245483,1024.6296
1689212245530,1024.6254
1689212245541,1024.6251
1689212245582,1024.6239
1689212245624,1024.6163
1689212245642,1024.6155
1689212245688,1024.6188
1689212245722,1024.6166
1689212245742,1024.6149
1689212245781,1024.6133
1689212245823,1024.6045
1689212245841,1024.6005
1689212245886,1024.606
1689212245922,1024.6104
1689212245941,1024.6079
1689212245984,1024.6042
1689212246023,1024.6171
1689212246044,1024.625
1689212246083,1024.6208
1689212246125,1024.6229
1689212246142,1024.6254
1689212246180,1024.628
1689212246221,1024.6288
1689212246242,1024.6343
1689212246280,1024.6252
1689212246320,1024.6272
1689212246341,1024.6293
1689212246382,1024.6332
1689212246421,1024.6279
1689212246441,1024.6346
1689212246483,1024.6323
1689212246522,1024.6328
1689212246543,1024.6293
1689212246581,1024.6162
1689212246621,1024.617
1689212246642,1024.6342
1689212246683,1024.6279
1689212246721,1024.6184
1689212246745,1024.6263
1689212246782,1024.6279
1689212246821,1024.6302
1689212246845,1024.6295
1689212246881,1024.6306
1689212246922,1024.6223
1689212246942,1024.6136
1689212246982,1024.6074
1689212247022,1024.6097
1689212247046,1024.615
1689212247083,1024.6277
1689212247121,1024.624
1689212247143,1024.6171
1689212247181,1024.6089
1689212247229,1024.6073
1689212247239,1024.6223
1689212247280,1024.6222
1689212247321,1024.6243
1689212247340,1024.6262
1689212247382,1024.6299
1689212247420,1024.629
1689212247441,1024.6306
1689212247483,1024.6343
1689212247521,1024.6394
1689212247540,1024.6366
1689212247585,1024.6365
1689212247621,1024.6315
1689212247640,1024.6302
1689212247680,1024.6304
1689212247722,1024.642
1689212247741,1024.6412
1689212247781,1024.6311
1689212247822,1024.6204
1689212247840,1024.6202
1689212247882,1024.6294
1689212247925,1024.6327
1689212247939,1024.6265
1689212247981,1024.6368
1689212248020,1024.6416
1689212248040,1024.6555
1689212248082,1024.6426
1689212248128,1024.6345
1689212248139,1024.6217
1689212248184,1024.6116
1689212248228,1024.605
1689212248240,1024.6096
1689212248280,1024.6038
1689212248323,1024.6122
1689212248341,1024.6047
1689212248382,1024.5967
1689212248421,1024.6025
1689212248444,1024.6177
1689212248483,1024.6285
1689212248523,1024.6261
1689212248541,1024.6324
1689212248581,1024.629
1689212248621,1024.6354
1689212248641,1024.6382
1689212248690,1024.6389
1689212248721,1024.6345
1689212248741,1024.6282
1689212248780,1024.639
1689212248821,1024.6392
1689212248842,1024.6282
1689212248884,1024.634
1689212248921,1024.6373
1689212248940,1024.6464
1689212248983,1024.6436
1689212249020,1024.6355
1689212249041,1024.6284
1689212249080,1024.6206
1689212249121,1024.6271
1689212249140,1024.6252
1689212249180,1024.6293
1689212249222,1024.6256
1689212249242,1024.6315
1689212249279,1024.624
1689212249327,1024.6245
1689212249340,1024.6212
1689212249382,1024.622
1689212249421,1024.6273
1689212249444,1024.6204
1689212249487,1024.6187
1689212249519,1024.62
1689212249543,1024.633
1689212249580,1024.6221
1689212249621,1024.6058
1689212249649,1024.6086
1689212249679,1024.6097
1689212249720,1024.6107
1689212249738,1024.6223
1689212249779,1024.6326
1689212249823,1024.6405
1689212249839,1024.6451
1689212249879,1024.6538
1689212249921,1024.6512
1689212249939,1024.6439
1689212249982,1024.6421
1689212250020,1024.6357
1689212250042,1024.6312
1689212250081,1024.6292
1689212250121,1024.6287
1689212250142,1024.6367
1689212250180,1024.6318
1689212250223,1024.6266
1689212250238,1024.6201
1689212250282,1024.6106
1689212250320,1024.6082
1689212250345,1024.623
1689212250382,1024.6228
1689212250418,1024.617
1689212250443,1024.606
1689212250480,1024.6141
1689212250519,1024.6182
1689212250539,1024.6228
1689212250578,1024.6202
1689212250621,1024.6168
1689212250640,1024.6152
1689212250682,1024.6074
1689212250719,1024.6057
1689212250744,1024.6229
1689212250785,1024.6154
1689212250818,1024.6091
1689212250840,1024.6136
1689212250879,1024.6259
1689212250921,1024.635
1689212250938,1024.6362
1689212250979,1024.6444
1689212251018,1024.6353
1689212251043,1024.649
1689212251080,1024.6477
1689212251120,1024.6472
1689212251143,1024.6433
1689212251187,1024.6362
1689212251218,1024.6401
1689212251239,1024.6301
1689212251279,1024.6223
1689212251319,1024.633
1689212251341,1024.6504
1689212251379,1024.6327
1689212251424,1024.6108
1689212251438,1024.6094
1689212251477,1024.6082
1689212251519,1024.6119
1689212251559,1024.6204
1689212251580,1024.6234
1689212251619,1024.6215
1689212251659,1024.6287
1689212251679,1024.6226
1689212251719,1024.6188
1689212251759,1024.6147
1689212251780,1024.6106
1689212251818,1024.6047
1689212251860,1024.603
1689212251881,1024.6057
1689212251921,1024.6022
1689212251960,1024.6119
1689212251980,1024.5975
1689212252020,1024.595
1689212252040,1024.5955
1689212252080,1024.6041
1689212252124,1024.6088
1689212252158,1024.6182
1689212252179,1024.6287
1689212252219,1024.624
1689212252240,1024.6299
1689212252280,1024.6257
1689212252328,1024.6294
1689212252358,1024.635
1689212252379,1024.6301
1689212252417,1024.6202
1689212252460,1024.617
1689212252478,1024.6151
1689212252518,1024.6234
1689212252558,1024.6235
1689212252579,1024.6222
1689212252619,1024.6135
1689212252658,1024.6022
1689212252694,1024.5994
1689212252717,1024.605
1689212252767,1024.6135
1689212252790,1024.6177
1689212252818,1024.6167
1689212252857,1024.619
1689212252879,1024.6183
1689212252919,1024.606
1689212252959,1024.5966
1689212252983,1024.6008
1689212253017,1024.6002
1689212253059,1024.5996
1689212253080,1024.6001
1689212253123,1024.5928
1689212253157,1024.5931
1689212253177,1024.5947
1689212253216,1024.5941
1689212253257,1024.5876
1689212253278,1024.6014
1689212253318,1024.6182
1689212253359,1024.6293
1689212253378,1024.627
1689212253433,1024.6348
1689212253459,1024.6309
1689212253477,1024.6285
1689212253518,1024.6378
1689212253567,1024.6439
1689212253588,1024.6415
1689212253622,1024.637
1689212253665,1024.6317
1689212253682,1024.6263
1689212253718,1024.6257
1689212253767,1024.6178
1689212253777,1024.6343
1689212253816,1024.6246
1689212253860,1024.6046
1689212253878,1024.5973
1689212253920,1024.6025
1689212253963,1024.6183
1689212253977,1024.625
1689212254018,1024.6283
1689212254060,1024.6211
1689212254082,1024.616
1689212254119,1024.6144
1689212254168,1024.6038
1689212254176,1024.6093
1689212254218,1024.6061
1689212254258,1024.5997
1689212254277,1024.595
1689212254317,1024.5981
1689212254358,1024.5978
1689212254384,1024.6002
1689212254417,1024.588
1689212254458,1024.5856
1689212254477,1024.6056
1689212254518,1024.6172
1689212254557,1024.6205
1689212254577,1024.6156
1689212254627,1024.6292
1689212254658,1024.6146
1689212254679,1024.6191
1689212254716,1024.6254
1689212254758,1024.6196
1689212254780,1024.6168
1689212254817,1024.6185
1689212254857,1024.6205
1689212254877,1024.6053
1689212254918,1024.6112
1689212254957,1024.6182
1689212254977,1024.6299
1689212255017,1024.6489
1689212255057,1024.6306
1689212255080,1024.6056
1689212255117,1024.6055
1689212255158,1024.6063
1689212255179,1024.5947
1689212255217,1024.6095
1689212255258,1024.611
1689212255276,1024.613
1689212255317,1024.6084
1689212255356,1024.6094
1689212255378,1024.6113
1689212255418,1024.5974
1689212255456,1024.6023
1689212255476,1024.615
1689212255515,1024.6271
1689212255560,1024.6238
1689212255576,1024.6119
1689212255618,1024.61
1689212255657,1024.607
1689212255677,1024.6055
1689212255722,1024.6023
1689212255756,1024.6154
1689212255777,1024.6023
1689212255817,1024.5918
1689212255856,1024.5819
1689212255878,1024.5836
1689212255919,1024.5779
1689212255957,1024.589
1689212255976,1024.5844
1689212256016,1024.5854
1689212256057,1024.5874
1689212256076,1024.5917
1689212256118,1024.5853
1689212256155,1024.5862
1689212256174,1024.5793
1689212256216,1024.565
1689212256254,1024.5604
1689212256275,1024.562
1689212256315,1024.5573
1689212256354,1024.5519
1689212256375,1024.5483
1689212256414,1024.552
1689212256454,1024.5483
1689212256475,1024.5468
1689212256515,1024.5383
1689212256555,1024.5507
1689212256575,1024.5496
1689212256614,1024.5425
1689212256654,1024.55
1689212256675,1024.541
1689212256715,1024.5352
1689212256754,1024.5317
1689212256775,1024.5292
1689212256814,1024.5303
1689212256854,1024.5302
1689212256875,1024.529
1689212256914,1024.5287
1689212256955,1024.5322
1689212256974,1024.5338
1689212257047,1024.5416
1689212257096,1024.532
1689212257096,1024.5315
1689212257150,1024.5278
1689212257193,1024.5355
1689212257194,1024.5486
1689212257241,1024.5457
1689212257254,1024.5325
1689212257275,1024.5347
1689212257314,1024.5264
1689212257353,1024.5172
1689212257374,1024.5264
1689212257414,1024.5305
1689212257453,1024.5278
1689212257473,1024.5269
1689212257513,1024.532
1689212257553,1024.5369
1689212257574,1024.5259
1689212257614,1024.5182
1689212257656,1024.5188
1689212257674,1024.5173
1689212257713,1024.5153
1689212257755,1024.5131
1689212257775,1024.5149
1689212257815,1024.5159
1689212257853,1024.5205
1689212257876,1024.5177
1689212257915,1024.5121
1689212257955,1024.5186
1689212257974,1024.5172
1689212258015,1024.5166
1689212258054,1024.5132
1689212258074,1024.5155
1689212258115,1024.5077
1689212258153,1024.4995
1689212258173,1024.5037
1689212258214,1024.4948
1689212258255,1024.496
1689212258274,1024.4899
1689212258314,1024.4883
1689212258353,1024.4955
1689212258374,1024.4934
1689212258413,1024.4878
1689212258454,1024.4901
1689212258473,1024.4911
1689212258514,1024.4939
1689212258554,1024.4916
1689212258574,1024.4811
1689212258614,1024.474
1689212258654,1024.4696
1689212258674,1024.475
1689212258713,1024.4852
