1689212774358,1024.583
1689212774373,1024.5128
1689212774410,1024.4801
1689212774430,1024.4604
1689212774470,1024.4456
1689212774511,1024.4446
1689212774532,1024.4438
1689212774571,1024.4393
1689212774611,1024.4291
1689212774653,1024.429
1689212774672,1024.422
1689212774710,1024.4219
1689212774732,1024.4318
1689212774774,1024.4316
1689212774810,1024.4352
1689212774850,1024.4341
1689212774870,1024.4291
1689212774910,1024.4194
1689212774951,1024.4172
1689212774970,1024.417
1689212775009,1024.4178
1689212775049,1024.4209
1689212775069,1024.4257
1689212775110,1024.43
1689212775150,1024.4224
1689212775173,1024.4183
1689212775209,1024.423
1689212775249,1024.4222
1689212775269,1024.4275
1689212775309,1024.4229
1689212775350,1024.4165
1689212775370,1024.4159
1689212775409,1024.4231
1689212775449,1024.4257
1689212775471,1024.4341
1689212775509,1024.4307
1689212775551,1024.4292
1689212775570,1024.4353
1689212775617,1024.4235
1689212775648,1024.4132
1689212775669,1024.4181
1689212775709,1024.418
1689212775752,1024.4194
1689212775788,1024.4164
1689212775810,1024.4167
1689212775862,1024.4204
1689212775870,1024.4126
1689212775933,1024.4143
1689212775949,1024.4089
1689212775989,1024.4148
1689212776063,1024.4156
1689212776063,1024.4025
1689212776068,1024.417
1689212776128,1024.4126
1689212776161,1024.4214
1689212776170,1024.4263
1689212776209,1024.4453
1689212776253,1024.4553
1689212776273,1024.444
1689212776333,1024.4277
1689212776350,1024.4258
1689212776371,1024.4435
1689212776469,1024.4468
1689212776493,1024.4423
1689212776532,1024.4374
1689212776569,1024.4194
1689212776589,1024.4115
1689212776629,1024.4159
1689212776650,1024.4204
1689212776697,1024.4253
1689212776730,1024.4143
1689212776772,1024.4148
1689212776792,1024.4131
1689212776831,1024.4238
1689212776870,1024.4333
1689212776892,1024.4364
1689212776931,1024.4401
1689212776969,1024.436
1689212776989,1024.4441
1689212777052,1024.45
1689212777071,1024.439
1689212777090,1024.4401
1689212777136,1024.4401
1689212777188,1024.429
1689212777189,1024.4067
1689212777228,1024.3811
1689212777277,1024.3802
1689212777294,1024.4038
1689212777330,1024.4055
1689212777369,1024.3987
1689212777390,1024.3928
1689212777430,1024.3875
1689212777471,1024.386
1689212777497,1024.3912
1689212777532,1024.3976
1689212777569,1024.3982
1689212777592,1024.3779
1689212777634,1024.3759
1689212777671,1024.3722
1689212777689,1024.3777
1689212777737,1024.3822
1689212777770,1024.3978
1689212777788,1024.405
1689212777829,1024.4103
1689212777869,1024.4075
1689212777901,1024.4121
1689212777931,1024.4136
1689212777970,1024.4136
1689212777989,1024.4177
1689212778030,1024.4164
1689212778073,1024.4072
1689212778090,1024.3997
1689212778141,1024.3955
1689212778171,1024.3871
1689212778189,1024.371
1689212778230,1024.3617
1689212778275,1024.3632
1689212778291,1024.3652
1689212778333,1024.3868
1689212778372,1024.396
1689212778390,1024.3911
1689212778430,1024.386
1689212778470,1024.3931
1689212778493,1024.3888
1689212778531,1024.3856
1689212778569,1024.3867
1689212778594,1024.3892
1689212778639,1024.377
1689212778669,1024.3868
1689212778689,1024.4028
1689212778731,1024.3756
1689212778771,1024.3733
1689212778790,1024.381
1689212778831,1024.3933
1689212778869,1024.3889
1689212778889,1024.3892
1689212778930,1024.3928
1689212778973,1024.4048
1689212778989,1024.4014
1689212779030,1024.4099
1689212779069,1024.4047
1689212779089,1024.4089
1689212779133,1024.4094
1689212779168,1024.4172
1689212779190,1024.418
1689212779232,1024.3921
1689212779268,1024.3776
1689212779289,1024.4052
1689212779328,1024.4167
1689212779368,1024.4004
1689212779390,1024.3827
1689212779430,1024.3835
1689212779470,1024.3773
1689212779491,1024.3796
1689212779532,1024.3834
1689212779573,1024.3805
1689212779591,1024.3865
1689212779630,1024.3665
1689212779674,1024.3483
1689212779690,1024.3535
1689212779729,1024.3728
1689212779771,1024.3885
1689212779788,1024.3833
1689212779832,1024.3904
1689212779868,1024.3964
1689212779889,1024.3906
1689212779931,1024.3911
1689212779968,1024.3942
1689212779988,1024.3865
1689212780028,1024.389
1689212780072,1024.3912
1689212780105,1024.3857
1689212780134,1024.3911
1689212780167,1024.3882
1689212780189,1024.3733
1689212780229,1024.3812
1689212780270,1024.3744
1689212780290,1024.3832
1689212780334,1024.4028
1689212780371,1024.4026
1689212780390,1024.3997
1689212780428,1024.3915
1689212780468,1024.3816
1689212780491,1024.381
1689212780535,1024.3826
1689212780569,1024.3788
1689212780595,1024.3857
1689212780627,1024.3885
1689212780669,1024.3828
1689212780690,1024.3815
1689212780728,1024.3729
1689212780768,1024.3623
1689212780788,1024.3596
1689212780829,1024.3582
1689212780868,1024.3544
1689212780891,1024.3671
1689212780928,1024.3689
1689212780968,1024.3721
1689212780988,1024.387
1689212781028,1024.3922
1689212781069,1024.3927
1689212781091,1024.3846
1689212781128,1024.3784
1689212781166,1024.3627
1689212781186,1024.3453
1689212781227,1024.3639
1689212781267,1024.3876
1689212781288,1024.3855
1689212781338,1024.3845
1689212781369,1024.3816
1689212781391,1024.3911
1689212781427,1024.3895
1689212781471,1024.3741
1689212781488,1024.372
1689212781530,1024.3752
1689212781571,1024.3683
1689212781594,1024.3542
1689212781627,1024.3483
1689212781670,1024.3704
1689212781689,1024.3466
1689212781736,1024.3477
1689212781771,1024.3652
1689212781788,1024.3798
1689212781831,1024.3804
1689212781866,1024.3959
1689212781888,1024.3949
1689212781929,1024.3916
1689212781969,1024.394
1689212781987,1024.399
1689212782033,1024.4011
1689212782066,1024.4037
1689212782086,1024.401
1689212782128,1024.3884
1689212782167,1024.3815
1689212782187,1024.3748
1689212782230,1024.3765
1689212782268,1024.3829
1689212782290,1024.3903
1689212782326,1024.4047
1689212782371,1024.3959
1689212782390,1024.3937
1689212782429,1024.3799
1689212782475,1024.3741
1689212782488,1024.3723
1689212782533,1024.3665
1689212782567,1024.375
1689212782588,1024.3828
1689212782627,1024.3755
1689212782668,1024.3572
1689212782688,1024.3555
1689212782734,1024.3618
1689212782766,1024.3767
1689212782790,1024.3854
1689212782839,1024.3855
1689212782867,1024.3805
1689212782888,1024.39
1689212782930,1024.3972
1689212782972,1024.3917
1689212782987,1024.3832
1689212783028,1024.3868
1689212783068,1024.3976
1689212783088,1024.3956
1689212783130,1024.3915
1689212783175,1024.3962
1689212783187,1024.3938
1689212783228,1024.3865
1689212783267,1024.3713
1689212783285,1024.3524
1689212783327,1024.3604
1689212783365,1024.3728
1689212783387,1024.3922
1689212783429,1024.3909
1689212783465,1024.3922
1689212783489,1024.3923
1689212783535,1024.397
1689212783565,1024.385
1689212783585,1024.3777
1689212783626,1024.3907
1689212783665,1024.3937
1689212783687,1024.3561
1689212783728,1024.3411
1689212783766,1024.3575
1689212783789,1024.3767
1689212783828,1024.3832
1689212783886,1024.3812
1689212783887,1024.3843
1689212783927,1024.3883
1689212783967,1024.4048
1689212783988,1024.398
1689212784024,1024.3862
1689212784066,1024.3837
1689212784103,1024.3832
1689212784127,1024.3851
1689212784169,1024.3807
1689212784194,1024.3805
1689212784226,1024.3934
1689212784268,1024.4066
1689212784285,1024.4102
1689212784328,1024.4114
1689212784365,1024.4137
1689212784386,1024.3984
1689212784425,1024.3955
1689212784465,1024.3829
1689212784485,1024.3763
1689212784530,1024.3771
1689212784569,1024.4015
1689212784587,1024.3955
1689212784630,1024.388
1689212784669,1024.3975
1689212784688,1024.3999
1689212784726,1024.3934
1689212784766,1024.3878
1689212784788,1024.3835
1689212784841,1024.382
1689212784864,1024.3695
1689212784885,1024.361
1689212784925,1024.3824
1689212784966,1024.3857
1689212784989,1024.3662
1689212785025,1024.3663
1689212785068,1024.3794
1689212785086,1024.3783
1689212785128,1024.3859
1689212785170,1024.3995
1689212785186,1024.3983
1689212785227,1024.3932
1689212785269,1024.398
1689212785284,1024.4071
1689212785325,1024.404
1689212785378,1024.3982
1689212785388,1024.4083
1689212785434,1024.4165
1689212785464,1024.4144
1689212785485,1024.4069
1689212785528,1024.388
1689212785568,1024.3835
1689212785591,1024.3983
1689212785625,1024.4005
1689212785675,1024.4109
1689212785698,1024.4105
1689212785726,1024.4026
1689212785765,1024.3931
1689212785785,1024.4001
1689212785824,1024.3998
1689212785865,1024.3926
1689212785887,1024.3784
1689212785924,1024.3727
1689212785970,1024.3783
1689212785984,1024.3916
1689212786024,1024.3845
1689212786067,1024.3777
1689212786085,1024.3834
1689212786123,1024.3818
1689212786163,1024.3854
1689212786185,1024.3948
1689212786228,1024.3987
1689212786264,1024.4017
1689212786286,1024.4078
1689212786324,1024.4095
1689212786375,1024.4141
1689212786389,1024.4158
1689212786425,1024.42
1689212786466,1024.4102
1689212786487,1024.4133
1689212786524,1024.3965
1689212786565,1024.3752
1689212786584,1024.3623
1689212786623,1024.3647
1689212786664,1024.3892
1689212786684,1024.395
1689212786724,1024.3855
1689212786764,1024.3876
1689212786784,1024.3926
1689212786823,1024.4023
1689212786863,1024.3927
1689212786884,1024.3896
1689212786924,1024.3816
1689212786963,1024.3699
1689212786986,1024.3744
1689212787023,1024.3849
1689212787063,1024.4236
1689212787084,1024.3715
1689212787125,1024.3617
1689212787164,1024.3721
1689212787184,1024.3782
1689212787225,1024.3756
1689212787263,1024.3816
1689212787283,1024.3859
1689212787324,1024.3921
1689212787363,1024.4047
1689212787384,1024.4022
1689212787423,1024.4036
1689212787463,1024.4005
1689212787484,1024.3995
1689212787524,1024.3892
1689212787564,1024.39
1689212787583,1024.3986
1689212787625,1024.3962
1689212787663,1024.3907
1689212787683,1024.3906
1689212787724,1024.389
1689212787763,1024.3873
1689212787786,1024.3914
1689212787824,1024.3893
1689212787863,1024.3936
1689212787883,1024.3838
1689212787923,1024.3741
1689212787963,1024.3824
1689212787983,1024.4012
1689212788023,1024.3855
1689212788062,1024.384
1689212788082,1024.3845
1689212788125,1024.3914
1689212788162,1024.392
1689212788182,1024.3915
1689212788223,1024.3981
1689212788262,1024.4054
1689212788282,1024.4078
1689212788324,1024.408
1689212788362,1024.4143
1689212788383,1024.4153
1689212788423,1024.415
1689212788463,1024.4241
1689212788482,1024.4427
1689212788522,1024.4377
1689212788562,1024.4294
1689212788583,1024.4033
1689212788625,1024.3916
1689212788671,1024.3903
1689212788688,1024.4099
1689212788722,1024.4171
1689212788762,1024.422
1689212788783,1024.4126
1689212788824,1024.4049
1689212788865,1024.3997
1689212788882,1024.3892
1689212788924,1024.3792
1689212788962,1024.3857
1689212788983,1024.3779
1689212789022,1024.3734
1689212789064,1024.366
1689212789082,1024.3634
1689212789122,1024.3816
1689212789162,1024.3844
1689212789182,1024.3788
1689212789222,1024.3828
1689212789263,1024.3958
1689212789284,1024.3978
1689212789325,1024.3943
1689212789369,1024.3975
1689212789381,1024.3967
1689212789422,1024.4004
1689212789462,1024.3999
1689212789485,1024.407
1689212789524,1024.3958
1689212789564,1024.3892
1689212789582,1024.3754
1689212789625,1024.3855
1689212789662,1024.4105
1689212789682,1024.4075
1689212789722,1024.3971
1689212789761,1024.3997
1689212789782,1024.3904
1689212789822,1024.3943
1689212789863,1024.3931
1689212789882,1024.3832
1689212789922,1024.3848
1689212789961,1024.3809
1689212789982,1024.3734
1689212790022,1024.3712
1689212790067,1024.3868
1689212790087,1024.38
1689212790123,1024.3518
1689212790167,1024.3643
1689212790182,1024.3813
1689212790222,1024.3926
1689212790261,1024.3927
1689212790282,1024.3958
1689212790323,1024.394
1689212790362,1024.3922
1689212790383,1024.3905
1689212790423,1024.3937
1689212790467,1024.3955
1689212790481,1024.409
1689212790522,1024.4194
1689212790564,1024.4171
1689212790584,1024.4128
1689212790621,1024.3999
1689212790661,1024.3789
1689212790681,1024.3967
1689212790723,1024.4083
1689212790762,1024.4156
1689212790782,1024.4126
1689212790823,1024.4034
1689212790862,1024.4069
1689212790881,1024.3962
1689212790923,1024.3883
1689212790961,1024.3901
1689212790981,1024.4124
1689212791021,1024.4038
1689212791061,1024.3782
1689212791082,1024.3667
1689212791122,1024.3666
1689212791164,1024.3673
1689212791185,1024.364
1689212791222,1024.3641
1689212791262,1024.3777
1689212791282,1024.3926
1689212791324,1024.3931
1689212791362,1024.381
1689212791383,1024.3762
1689212791427,1024.3749
1689212791462,1024.3766
1689212791487,1024.388
1689212791524,1024.3909
1689212791562,1024.3882
1689212791582,1024.395
1689212791628,1024.399
1689212791670,1024.3805
1689212791681,1024.3633
1689212791723,1024.3787
1689212791776,1024.4036
1689212791784,1024.4076
1689212791821,1024.3932
1689212791862,1024.3922
1689212791882,1024.3922
1689212791921,1024.3793
1689212791967,1024.3673
1689212791981,1024.3666
1689212792031,1024.3756
1689212792063,1024.3715
1689212792082,1024.3646
1689212792124,1024.3582
1689212792162,1024.3995
1689212792181,1024.3616
1689212792221,1024.3342
1689212792263,1024.343
1689212792285,1024.3557
1689212792325,1024.3618
1689212792361,1024.3679
1689212792385,1024.3848
1689212792420,1024.3835
1689212792464,1024.3938
1689212792482,1024.395
1689212792525,1024.3894
1689212792562,1024.389
1689212792580,1024.3918
1689212792629,1024.3973
1689212792661,1024.3907
1689212792682,1024.3726
1689212792722,1024.3723
1689212792759,1024.3737
1689212792781,1024.3813
1689212792820,1024.3927
1689212792861,1024.3971
1689212792882,1024.3887
1689212792926,1024.3688
1689212792990,1024.3538
1689212792990,1024.3568
1689212793020,1024.3651
1689212793061,1024.3795
1689212793081,1024.3741
1689212793123,1024.3586
1689212793164,1024.3615
1689212793181,1024.3701
1689212793225,1024.3807
1689212793260,1024.3766
1689212793280,1024.3695
1689212793323,1024.3796
1689212793361,1024.3833
1689212793381,1024.3823
1689212793421,1024.3809
1689212793460,1024.382
1689212793494,1024.3763
1689212793520,1024.384
1689212793563,1024.3958
1689212793588,1024.3898
1689212793620,1024.3755
1689212793660,1024.362
1689212793682,1024.3499
1689212793723,1024.3503
1689212793767,1024.3536
1689212793780,1024.354
1689212793821,1024.3599
1689212793861,1024.3579
1689212793882,1024.3372
1689212793920,1024.3315
1689212793965,1024.3346
1689212793982,1024.3447
1689212794022,1024.3381
1689212794060,1024.3292
1689212794080,1024.3264
1689212794128,1024.3396
1689212794160,1024.3333
1689212794184,1024.3506
1689212794222,1024.3572
1689212794261,1024.3517
1689212794284,1024.3539
1689212794320,1024.3553
1689212794366,1024.362
1689212794383,1024.3755
1689212794421,1024.3752
1689212794461,1024.3822
1689212794482,1024.3759
1689212794523,1024.3785
1689212794567,1024.3783
1689212794582,1024.3854
1689212794622,1024.3718
1689212794666,1024.3611
1689212794679,1024.3398
1689212794721,1024.3329
1689212794761,1024.3258
1689212794782,1024.343
1689212794821,1024.36
1689212794864,1024.3655
1689212794879,1024.3674
1689212794948,1024.3624
1689212794959,1024.3606
1689212794982,1024.3585
1689212795021,1024.348
1689212795060,1024.3448
1689212795081,1024.3516
1689212795123,1024.3981
1689212795161,1024.3447
1689212795183,1024.3241
1689212795222,1024.3447
1689212795260,1024.3589
1689212795281,1024.3514
1689212795319,1024.3497
1689212795368,1024.351
1689212795381,1024.368
1689212795421,1024.3733
1689212795459,1024.3698
1689212795483,1024.3668
1689212795521,1024.3705
1689212795563,1024.3778
1689212795595,1024.3782
1689212795619,1024.3816
1689212795662,1024.3899
1689212795682,1024.3809
1689212795720,1024.3701
1689212795764,1024.3717
1689212795780,1024.3936
1689212795820,1024.3864
1689212795864,1024.3702
1689212795882,1024.3657
1689212795920,1024.3696
1689212795963,1024.3741
1689212795980,1024.3634
1689212796030,1024.3523
1689212796058,1024.3495
1689212796080,1024.3469
1689212796123,1024.3612
1689212796161,1024.3488
1689212796178,1024.3392
1689212796221,1024.353
1689212796262,1024.3512
1689212796279,1024.3575
1689212796323,1024.3654
1689212796359,1024.3708
1689212796378,1024.3646
1689212796418,1024.3745
1689212796458,1024.3789
1689212796480,1024.3822
1689212796521,1024.3937
1689212796563,1024.3854
1689212796579,1024.3755
1689212796620,1024.3749
1689212796658,1024.3528
1689212796682,1024.3392
1689212796719,1024.3699
1689212796760,1024.3678
1689212796781,1024.3635
1689212796828,1024.3663
1689212796859,1024.3683
1689212796880,1024.3601
1689212796919,1024.3582
1689212796960,1024.3594
1689212796980,1024.3557
1689212797019,1024.3518
1689212797062,1024.3318
1689212797081,1024.322
1689212797118,1024.3441
1689212797158,1024.3469
1689212797181,1024.3348
1689212797220,1024.3408
1689212797264,1024.3453
1689212797279,1024.3501
1689212797321,1024.364
1689212797359,1024.3762
1689212797379,1024.3857
1689212797422,1024.3783
1689212797464,1024.3761
1689212797479,1024.3735
1689212797519,1024.3785
1689212797563,1024.3813
1689212797578,1024.3801
1689212797628,1024.3794
1689212797659,1024.3782
1689212797679,1024.3687
1689212797723,1024.3455
1689212797768,1024.3282
1689212797779,1024.354
1689212797819,1024.379
1689212797862,1024.3698
1689212797900,1024.3613
1689212797919,1024.3705
1689212797996,1024.3688
1689212797997,1024.3613
1689212798018,1024.3627
1689212798063,1024.3595
1689212798101,1024.3518
1689212798128,1024.3431
1689212798158,1024.358
1689212798197,1024.3848
1689212798220,1024.3394
1689212798261,1024.324
1689212798300,1024.3367
1689212798324,1024.3533
1689212798362,1024.3499
1689212798403,1024.3497
1689212798423,1024.3583
1689212798458,1024.3662
1689212798479,1024.377
1689212798518,1024.3662
1689212798558,1024.3676
1689212798599,1024.383
1689212798618,1024.3845
1689212798659,1024.3792
1689212798679,1024.3804
1689212798718,1024.381
1689212798757,1024.391
1689212798809,1024.3846
1689212798816,1024.3601
1689212798858,1024.3489
1689212798900,1024.3585
1689212798917,1024.3696
1689212798959,1024.3717
1689212798999,1024.3658
1689212799018,1024.356
1689212799061,1024.3608
1689212799097,1024.3553
1689212799117,1024.3601
1689212799156,1024.3619
1689212799197,1024.3585
1689212799221,1024.3531
1689212799259,1024.3535
1689212799299,1024.3611
1689212799322,1024.3774
1689212799358,1024.3555
1689212799397,1024.352
1689212799418,1024.3567
1689212799457,1024.3486
1689212799498,1024.3474
1689212799522,1024.3523
1689212799558,1024.3618
1689212799601,1024.3678
1689212799618,1024.366
1689212799663,1024.3678
1689212799700,1024.3629
1689212799720,1024.3639
1689212799758,1024.3726
1689212799803,1024.3817
1689212799820,1024.3765
1689212799858,1024.3643
1689212799903,1024.3451
1689212799920,1024.3252
1689212799959,1024.3087
1689212800000,1024.3188
1689212800017,1024.3379
1689212800058,1024.3464
1689212800102,1024.3431
1689212800125,1024.3405
1689212800161,1024.3417
1689212800198,1024.3461
1689212800221,1024.3396
1689212800268,1024.3422
1689212800299,1024.3473
1689212800325,1024.3376
1689212800358,1024.3274
1689212800398,1024.3264
1689212800416,1024.3347
1689212800457,1024.3341
1689212800497,1024.339
1689212800518,1024.3069
1689212800557,1024.315
1689212800598,1024.3376
1689212800621,1024.3525
1689212800657,1024.3531
1689212800704,1024.3463
1689212800716,1024.362
1689212800756,1024.3724
1689212800800,1024.3848
1689212800817,1024.383
1689212800856,1024.3755
1689212800899,1024.3713
1689212800926,1024.3699
1689212800960,1024.3705
1689212800997,1024.3679
1689212801016,1024.3606
1689212801057,1024.3613
1689212801100,1024.3522
1689212801116,1024.3514
1689212801159,1024.3624
1689212801199,1024.3711
1689212801217,1024.3728
1689212801260,1024.3624
1689212801299,1024.362
1689212801320,1024.3575
1689212801358,1024.357
1689212801401,1024.3506
1689212801419,1024.3574
1689212801460,1024.3428
1689212801498,1024.3469
1689212801520,1024.3544
1689212801556,1024.355
1689212801597,1024.3597
1689212801624,1024.365
1689212801658,1024.3673
1689212801697,1024.3716
1689212801723,1024.3746
1689212801758,1024.3732
1689212801797,1024.3823
1689212801816,1024.3832
1689212801858,1024.3755
1689212801897,1024.3824
1689212801917,1024.3773
1689212801956,1024.3604
1689212802007,1024.3402
1689212802020,1024.3499
1689212802066,1024.3787
1689212802100,1024.3843
1689212802123,1024.3856
1689212802157,1024.3723
1689212802195,1024.3585
1689212802215,1024.3575
1689212802263,1024.3662
1689212802296,1024.3527
1689212802321,1024.348
1689212802358,1024.34
1689212802396,1024.3519
1689212802416,1024.3684
1689212802468,1024.3856
1689212802496,1024.3628
1689212802518,1024.36
1689212802567,1024.3625
1689212802595,1024.3568
1689212802617,1024.3466
1689212802659,1024.3434
1689212802698,1024.346
1689212802720,1024.3585
1689212802757,1024.366
1689212802807,1024.366
1689212802815,1024.3771
1689212802868,1024.3755
1689212802895,1024.3673
1689212802918,1024.3523
1689212802957,1024.3536
1689212802997,1024.3794
1689212803019,1024.3953
1689212803055,1024.3866
1689212803099,1024.3934
1689212803115,1024.3802
1689212803156,1024.376
1689212803200,1024.3702
1689212803215,1024.3638
1689212803258,1024.3666
1689212803295,1024.3676
1689212803320,1024.3599
1689212803359,1024.3552
1689212803397,1024.3622
1689212803422,1024.3594
1689212803462,1024.3429
1689212803496,1024.3453
1689212803520,1024.3597
1689212803554,1024.3682
1689212803597,1024.3618
1689212803622,1024.3639
1689212803659,1024.3538
1689212803699,1024.3594
1689212803715,1024.3616
1689212803765,1024.368
1689212803795,1024.3713
1689212803834,1024.3733
1689212803856,1024.3682
1689212803901,1024.3694
1689212803915,1024.3816
1689212803955,1024.3882
1689212803999,1024.3871
1689212804015,1024.3718
1689212804057,1024.3464
1689212804099,1024.3275
1689212804115,1024.3269
1689212804157,1024.3303
1689212804204,1024.353
1689212804222,1024.3507
1689212804257,1024.3589
1689212804294,1024.3635
1689212804314,1024.3605
1689212804355,1024.3628
1689212804396,1024.363
1689212804414,1024.3635
1689212804458,1024.362
1689212804495,1024.355
1689212804515,1024.345
1689212804557,1024.3405
1689212804608,1024.352
1689212804615,1024.3279
1689212804659,1024.3219
1689212804696,1024.334
1689212804715,1024.3436
1689212804754,1024.3484
1689212804797,1024.3545
1689212804814,1024.3762
1689212804861,1024.3903
1689212804896,1024.3932
1689212804916,1024.3883
1689212804955,1024.3882
1689212804994,1024.3992
1689212805014,1024.3947
1689212805059,1024.3881
1689212805094,1024.3748
1689212805118,1024.3588
1689212805160,1024.3535
1689212805198,1024.3485
1689212805214,1024.3514
1689212805254,1024.3623
1689212805296,1024.3672
1689212805317,1024.3721
1689212805355,1024.375
1689212805405,1024.3668
1689212805414,1024.3629
1689212805454,1024.3472
1689212805493,1024.3484
1689212805515,1024.3524
1689212805555,1024.3552
1689212805595,1024.3503
1689212805614,1024.3523
1689212805655,1024.3542
1689212805697,1024.3593
1689212805715,1024.371
1689212805755,1024.3715
1689212805795,1024.3671
1689212805815,1024.3741
1689212805858,1024.3795
1689212805895,1024.3903
1689212805920,1024.3885
1689212805955,1024.383
1689212805997,1024.3782
1689212806013,1024.384
1689212806054,1024.3828
1689212806093,1024.3887
1689212806113,1024.39
1689212806155,1024.3741
1689212806195,1024.3608
1689212806214,1024.3396
1689212806255,1024.334
1689212806298,1024.3533
1689212806313,1024.3818
1689212806355,1024.3776
1689212806398,1024.3759
1689212806414,1024.3759
1689212806453,1024.3726
1689212806503,1024.3745
1689212806516,1024.3733
1689212806559,1024.3636
1689212806597,1024.3585
1689212806615,1024.3464
1689212806654,1024.3529
1689212806697,1024.3854
1689212806713,1024.3672
1689212806753,1024.3472
1689212806797,1024.3473
1689212806822,1024.3608
1689212806853,1024.365
1689212806894,1024.3623
1689212806913,1024.3594
1689212806954,1024.3582
1689212806994,1024.3668
1689212807014,1024.3821
1689212807054,1024.3871
1689212807093,1024.3844
1689212807116,1024.3895
1689212807153,1024.4023
1689212807194,1024.4054
1689212807215,1024.3859
1689212807255,1024.3607
1689212807295,1024.3447
1689212807313,1024.3634
1689212807352,1024.3862
1689212807394,1024.3922
1689212807420,1024.3905
1689212807454,1024.3853
1689212807493,1024.3892
1689212807517,1024.384
1689212807554,1024.3618
1689212807600,1024.3622
1689212807616,1024.3569
1689212807654,1024.3816
1689212807692,1024.3756
1689212807712,1024.355
1689212807760,1024.358
1689212807793,1024.3735
1689212807812,1024.375
1689212807855,1024.3765
1689212807896,1024.3749
1689212807913,1024.3923
1689212807955,1024.4025
1689212807998,1024.4014
1689212808015,1024.4016
1689212808063,1024.4137
1689212808094,1024.401
1689212808121,1024.4152
1689212808153,1024.4064
1689212808195,1024.3909
1689212808215,1024.3604
1689212808255,1024.3525
1689212808298,1024.3865
1689212808313,1024.4146
1689212808354,1024.4058
1689212808392,1024.4011
1689212808413,1024.3943
1689212808455,1024.3923
1689212808494,1024.3794
1689212808513,1024.3782
1689212808552,1024.3738
1689212808598,1024.3635
1689212808612,1024.3684
1689212808653,1024.3634
1689212808694,1024.3691
1689212808713,1024.3684
1689212808757,1024.3608
1689212808791,1024.3665
1689212808812,1024.3727
1689212808853,1024.3588
1689212808892,1024.3636
1689212808913,1024.3646
1689212808964,1024.3727
1689212808992,1024.3774
1689212809013,1024.3772
1689212809067,1024.3833
1689212809093,1024.3911
1689212809115,1024.3923
1689212809150,1024.402
1689212809193,1024.4106
1689212809218,1024.4143
1689212809252,1024.4058
1689212809292,1024.3917
1689212809314,1024.3784
1689212809352,1024.3667
1689212809416,1024.3666
1689212809416,1024.3673
1689212809452,1024.3828
1689212809495,1024.3971
1689212809523,1024.3949
1689212809556,1024.3937
1689212809603,1024.3959
1689212809612,1024.3932
1689212809652,1024.3925
1689212809697,1024.3853
1689212809711,1024.3689
1689212809758,1024.3694
1689212809795,1024.3948
1689212809811,1024.3782
1689212809855,1024.3525
1689212809900,1024.3567
1689212809910,1024.3646
1689212809952,1024.3792
1689212809993,1024.3855
1689212810011,1024.3872
1689212810054,1024.3926
1689212810094,1024.3955
1689212810114,1024.4023
1689212810151,1024.4055
1689212810194,1024.3936
1689212810211,1024.3961
1689212810253,1024.3971
1689212810295,1024.3938
1689212810310,1024.3928
1689212810352,1024.4025
1689212810392,1024.4108
1689212810423,1024.4161
1689212810453,1024.3907
1689212810498,1024.3712
1689212810511,1024.3743
1689212810555,1024.3954
1689212810594,1024.3999
1689212810612,1024.3914
1689212810651,1024.3967
1689212810693,1024.4045
1689212810715,1024.3928
1689212810752,1024.3773
1689212810804,1024.3837
1689212810810,1024.3986
1689212810853,1024.3772
1689212810893,1024.3672
1689212810914,1024.3658
1689212810952,1024.3696
1689212810990,1024.381
1689212811013,1024.3906
1689212811052,1024.3954
1689212811093,1024.4025
1689212811112,1024.4022
1689212811152,1024.4055
1689212811192,1024.4062
1689212811210,1024.4062
1689212811253,1024.4128
1689212811292,1024.4188
1689212811312,1024.4177
1689212811353,1024.4183
1689212811391,1024.3925
1689212811413,1024.3708
1689212811451,1024.346
1689212811493,1024.341
1689212811513,1024.3816
1689212811561,1024.4171
1689212811597,1024.4097
1689212811610,1024.4028
1689212811653,1024.3983
1689212811691,1024.3871
1689212811714,1024.3817
1689212811755,1024.3751
1689212811790,1024.3772
1689212811811,1024.3757
1689212811850,1024.3665
1689212811893,1024.3696
1689212811909,1024.3918
1689212811952,1024.3977
1689212811995,1024.3531
1689212812010,1024.3467
1689212812051,1024.3685
1689212812092,1024.3877
1689212812110,1024.3982
1689212812153,1024.3945
1689212812192,1024.3851
1689212812211,1024.3787
1689212812250,1024.3843
1689212812291,1024.3972
1689212812310,1024.4053
1689212812355,1024.4092
1689212812392,1024.4071
1689212812414,1024.3972
1689212812450,1024.4116
1689212812492,1024.4122
1689212812512,1024.3878
1689212812552,1024.3921
1689212812592,1024.384
1689212812612,1024.3817
1689212812651,1024.3994
1689212812690,1024.3949
1689212812713,1024.398
1689212812751,1024.387
1689212812789,1024.3817
1689212812812,1024.3845
1689212812850,1024.376
1689212812891,1024.3641
1689212812910,1024.3643
1689212812951,1024.3649
1689212812989,1024.377
1689212813011,1024.3846
1689212813052,1024.377
1689212813098,1024.3839
1689212813110,1024.3917
1689212813153,1024.4049
1689212813192,1024.3977
1689212813218,1024.3964
1689212813250,1024.39
1689212813291,1024.3932
1689212813314,1024.4072
1689212813349,1024.4056
1689212813392,1024.4008
1689212813413,1024.3966
1689212813450,1024.3948
1689212813503,1024.3938
1689212813510,1024.3861
1689212813550,1024.3801
1689212813591,1024.3835
1689212813609,1024.3821
1689212813650,1024.3862
1689212813691,1024.3826
1689212813710,1024.3813
1689212813755,1024.3772
1689212813789,1024.3762
1689212813811,1024.3672
1689212813852,1024.3677
1689212813892,1024.3706
1689212813908,1024.3676
1689212813948,1024.3674
1689212813988,1024.3665
1689212814008,1024.3608
1689212814049,1024.3595
1689212814087,1024.3579
1689212814108,1024.3475
1689212814156,1024.3501
1689212814188,1024.346
1689212814208,1024.3413
1689212814248,1024.332
1689212814288,1024.3381
1689212814308,1024.3494
1689212814348,1024.3396
1689212814387,1024.3339
1689212814407,1024.3435
1689212814457,1024.344
1689212814489,1024.3477
1689212814507,1024.3527
1689212814548,1024.3381
1689212814587,1024.344
1689212814608,1024.3512
1689212814648,1024.358
1689212814687,1024.3589
1689212814707,1024.3522
1689212814747,1024.355
1689212814787,1024.3563
1689212814807,1024.3524
1689212814847,1024.3569
1689212814888,1024.358
1689212814907,1024.3616
1689212814949,1024.3608
1689212814988,1024.3589
1689212815007,1024.3624
1689212815047,1024.36
1689212815087,1024.3634
1689212815107,1024.3682
1689212815151,1024.3638
1689212815191,1024.3606
1689212815225,1024.3579
1689212815247,1024.3555
1689212815302,1024.3585
1689212815309,1024.3585
1689212815347,1024.3561
1689212815388,1024.3445
1689212815407,1024.338
1689212815447,1024.3406
1689212815487,1024.3466
1689212815507,1024.3494
1689212815547,1024.3481
1689212815588,1024.3445
1689212815607,1024.3413
1689212815647,1024.3392
1689212815687,1024.334
1689212815707,1024.3289
1689212815747,1024.3278
1689212815787,1024.3376
1689212815807,1024.3467
1689212815847,1024.3606
1689212815886,1024.3601
1689212815906,1024.3625
1689212815947,1024.3513
1689212815986,1024.3513
1689212816006,1024.3542
1689212816047,1024.3569
1689212816086,1024.3488
1689212816106,1024.3428
