1689212888428,1024.331
1689212888447,1024.4183
1689212888487,1024.4596
1689212888507,1024.4802
1689212888547,1024.4867
1689212888587,1024.4957
1689212888627,1024.5103
1689212888647,1024.5148
1689212888687,1024.5146
1689212888727,1024.5154
1689212888747,1024.5125
1689212888788,1024.506
1689212888827,1024.511
1689212888847,1024.5111
1689212888889,1024.5193
1689212888927,1024.5178
1689212888947,1024.513
1689212888988,1024.5156
1689212889027,1024.5082
1689212889047,1024.5126
1689212889087,1024.5099
1689212889128,1024.511
1689212889147,1024.515
1689212889188,1024.5243
1689212889227,1024.5276
1689212889247,1024.5297
1689212889286,1024.543
1689212889335,1024.5388
1689212889347,1024.5458
1689212889390,1024.5427
1689212889427,1024.5338
1689212889446,1024.5302
1689212889487,1024.531
1689212889527,1024.5363
1689212889550,1024.5383
1689212889588,1024.5425
1689212889631,1024.5529
1689212889658,1024.5493
1689212889687,1024.5421
1689212889730,1024.5414
1689212889747,1024.5417
1689212889788,1024.5488
1689212889826,1024.5461
1689212889846,1024.5381
1689212889914,1024.5293
1689212889927,1024.5293
1689212889946,1024.5416
1689212889986,1024.5408
1689212890030,1024.5217
1689212890054,1024.5211
1689212890087,1024.5414
1689212890127,1024.551
1689212890146,1024.5637
1689212890251,1024.5618
1689212890268,1024.5667
1689212890308,1024.5645
1689212890348,1024.5646
1689212890372,1024.5743
1689212890417,1024.5718
1689212890447,1024.5708
1689212890467,1024.5773
1689212890507,1024.5801
1689212890548,1024.56
1689212890567,1024.5465
1689212890607,1024.5405
1689212890648,1024.5568
1689212890668,1024.5662
1689212890708,1024.5669
1689212890747,1024.572
1689212890767,1024.5646
1689212890812,1024.561
1689212890846,1024.5549
1689212890870,1024.5498
1689212890908,1024.5458
1689212890947,1024.5459
1689212890969,1024.538
1689212891007,1024.55
1689212891047,1024.5519
1689212891067,1024.5344
1689212891108,1024.5287
1689212891161,1024.5355
1689212891168,1024.5422
1689212891209,1024.5474
1689212891248,1024.5552
1689212891286,1024.5659
1689212891307,1024.5614
1689212891355,1024.5596
1689212891370,1024.5638
1689212891407,1024.5609
1689212891447,1024.5671
1689212891469,1024.5607
1689212891508,1024.5732
1689212891549,1024.5742
1689212891570,1024.5713
1689212891608,1024.5603
1689212891648,1024.554
1689212891666,1024.5702
1689212891708,1024.59
1689212891749,1024.5757
1689212891770,1024.5657
1689212891809,1024.5696
1689212891847,1024.5627
1689212891866,1024.5591
1689212891911,1024.5505
1689212891951,1024.5405
1689212891968,1024.543
1689212892009,1024.5382
1689212892062,1024.5361
1689212892070,1024.5319
1689212892107,1024.5299
1689212892148,1024.5269
1689212892167,1024.5415
1689212892209,1024.554
1689212892249,1024.5542
1689212892266,1024.5564
1689212892307,1024.5623
1689212892349,1024.5626
1689212892369,1024.5641
1689212892408,1024.5688
1689212892451,1024.5708
1689212892467,1024.5709
1689212892506,1024.5785
1689212892548,1024.5789
1689212892568,1024.5587
1689212892608,1024.5372
1689212892649,1024.5394
1689212892665,1024.5597
1689212892707,1024.5735
1689212892746,1024.5658
1689212892766,1024.5686
1689212892808,1024.5635
1689212892847,1024.5535
1689212892865,1024.5532
1689212892911,1024.556
1689212892945,1024.5417
1689212892965,1024.5345
1689212893006,1024.5616
1689212893048,1024.5991
1689212893068,1024.5204
1689212893108,1024.5308
1689212893148,1024.5541
1689212893179,1024.5527
1689212893206,1024.5483
1689212893247,1024.5479
1689212893265,1024.5612
1689212893305,1024.5612
1689212893347,1024.5603
1689212893373,1024.5652
1689212893406,1024.5652
1689212893455,1024.5709
1689212893467,1024.5736
1689212893509,1024.5789
1689212893545,1024.58
1689212893565,1024.5621
1689212893604,1024.5522
1689212893647,1024.5541
1689212893667,1024.573
1689212893705,1024.5692
1689212893745,1024.538
1689212893764,1024.5315
1689212893806,1024.5474
1689212893845,1024.5747
1689212893868,1024.5602
1689212893907,1024.5514
1689212893944,1024.5482
1689212893968,1024.5574
1689212894005,1024.5565
1689212894048,1024.5515
1689212894065,1024.5471
1689212894107,1024.5387
1689212894146,1024.5203
1689212894166,1024.5226
1689212894206,1024.5303
1689212894247,1024.5483
1689212894266,1024.5342
1689212894311,1024.5309
1689212894345,1024.5378
1689212894366,1024.5378
1689212894415,1024.5477
1689212894444,1024.56
1689212894464,1024.5676
1689212894504,1024.569
1689212894547,1024.5693
1689212894565,1024.578
1689212894607,1024.5785
1689212894645,1024.5782
1689212894667,1024.5764
1689212894705,1024.5776
1689212894746,1024.5702
1689212894764,1024.5438
1689212894804,1024.5316
1689212894844,1024.5269
1689212894865,1024.5651
1689212894908,1024.5676
1689212894949,1024.5701
1689212894968,1024.5781
1689212895006,1024.5673
1689212895048,1024.5586
1689212895064,1024.5521
1689212895106,1024.5493
1689212895147,1024.5471
1689212895164,1024.5656
1689212895207,1024.5604
1689212895246,1024.5222
1689212895265,1024.528
1689212895304,1024.5536
1689212895349,1024.565
1689212895364,1024.5546
1689212895411,1024.5524
1689212895443,1024.5552
1689212895463,1024.5587
1689212895505,1024.5596
1689212895543,1024.5554
1689212895564,1024.5585
1689212895604,1024.5664
1689212895643,1024.5773
1689212895663,1024.5737
1689212895704,1024.5759
1689212895748,1024.5867
1689212895763,1024.5657
1689212895807,1024.5469
1689212895845,1024.5544
1689212895868,1024.5464
1689212895919,1024.5446
1689212895945,1024.5527
1689212895965,1024.5577
1689212896009,1024.5603
1689212896045,1024.561
1689212896065,1024.5653
1689212896104,1024.5627
1689212896145,1024.5621
1689212896165,1024.5486
1689212896203,1024.5482
1689212896245,1024.5348
1689212896268,1024.5294
1689212896305,1024.5269
1689212896349,1024.5243
1689212896363,1024.5443
1689212896406,1024.5626
1689212896445,1024.5563
1689212896464,1024.5535
1689212896505,1024.5553
1689212896544,1024.5558
1689212896563,1024.5552
1689212896603,1024.5583
1689212896650,1024.5586
1689212896666,1024.5527
1689212896704,1024.5627
1689212896745,1024.5653
1689212896764,1024.5564
1689212896811,1024.5398
1689212896845,1024.535
1689212896872,1024.5507
1689212896904,1024.5704
1689212896944,1024.5754
1689212896965,1024.5718
1689212897003,1024.5715
1689212897044,1024.5676
1689212897074,1024.5533
1689212897105,1024.553
1689212897145,1024.5629
1689212897164,1024.5461
1689212897204,1024.5375
1689212897244,1024.5392
1689212897268,1024.5498
1689212897312,1024.5428
1689212897344,1024.535
1689212897367,1024.5449
1689212897404,1024.546
1689212897443,1024.5616
1689212897468,1024.5612
1689212897505,1024.5688
1689212897547,1024.5771
1689212897564,1024.5786
1689212897609,1024.5842
1689212897643,1024.5818
1689212897664,1024.5747
1689212897704,1024.5715
1689212897744,1024.5742
1689212897765,1024.5823
1689212897804,1024.5813
1689212897843,1024.583
1689212897869,1024.5724
1689212897907,1024.5541
1689212897961,1024.5571
1689212897968,1024.5687
1689212898003,1024.5686
1689212898044,1024.5621
1689212898064,1024.5608
1689212898103,1024.558
1689212898145,1024.5477
1689212898163,1024.5393
1689212898204,1024.5575
1689212898242,1024.566
1689212898263,1024.5527
1689212898304,1024.5432
1689212898344,1024.5316
1689212898363,1024.5381
1689212898404,1024.533
1689212898443,1024.5363
1689212898465,1024.5399
1689212898502,1024.5656
1689212898545,1024.5709
1689212898565,1024.5681
1689212898603,1024.5671
1689212898644,1024.5713
1689212898663,1024.5737
1689212898708,1024.5695
1689212898742,1024.574
1689212898762,1024.5659
1689212898805,1024.5668
1689212898842,1024.5642
1689212898863,1024.5675
1689212898902,1024.5679
1689212898942,1024.5566
1689212898963,1024.5404
1689212899004,1024.5277
1689212899044,1024.5308
1689212899062,1024.5641
1689212899102,1024.5747
1689212899143,1024.5631
1689212899168,1024.5583
1689212899203,1024.5576
1689212899243,1024.5569
1689212899263,1024.561
1689212899307,1024.5679
1689212899342,1024.5752
1689212899364,1024.5582
1689212899403,1024.5533
1689212899442,1024.5516
1689212899463,1024.56
1689212899502,1024.5642
1689212899546,1024.5642
1689212899561,1024.5603
1689212899613,1024.5376
1689212899644,1024.5406
1689212899664,1024.5608
1689212899709,1024.5579
1689212899741,1024.5509
1689212899761,1024.5494
1689212899801,1024.5607
1689212899842,1024.5732
1689212899863,1024.5737
1689212899902,1024.5692
1689212899943,1024.5862
1689212899968,1024.5964
1689212900002,1024.5894
1689212900043,1024.5924
1689212900062,1024.5826
1689212900103,1024.5789
1689212900141,1024.5894
1689212900162,1024.5858
1689212900201,1024.5665
1689212900246,1024.5544
1689212900262,1024.5557
1689212900304,1024.564
1689212900343,1024.5704
1689212900362,1024.5818
1689212900407,1024.5828
1689212900443,1024.5791
1689212900463,1024.574
1689212900531,1024.5654
1689212900541,1024.5525
1689212900561,1024.5428
1689212900601,1024.5356
1689212900649,1024.5515
1689212900662,1024.5485
1689212900704,1024.5497
1689212900749,1024.5485
1689212900761,1024.558
1689212900803,1024.5603
1689212900841,1024.5598
1689212900862,1024.5708
1689212900907,1024.5728
1689212900942,1024.5848
1689212900963,1024.5859
1689212901002,1024.5754
1689212901042,1024.5675
1689212901062,1024.581
1689212901107,1024.5873
1689212901141,1024.5857
1689212901163,1024.5796
1689212901204,1024.5697
1689212901242,1024.5463
1689212901262,1024.5359
1689212901301,1024.5463
1689212901344,1024.5613
1689212901364,1024.5538
1689212901403,1024.5547
1689212901445,1024.5535
1689212901462,1024.5479
1689212901507,1024.5403
1689212901541,1024.5347
1689212901561,1024.5436
1689212901603,1024.5444
1689212901641,1024.5303
1689212901664,1024.5204
1689212901701,1024.537
1689212901744,1024.5337
1689212901762,1024.5178
1689212901803,1024.5115
1689212901846,1024.5221
1689212901861,1024.5458
1689212901901,1024.5508
1689212901949,1024.5654
1689212901960,1024.57
1689212902002,1024.579
1689212902042,1024.5758
1689212902064,1024.5728
1689212902106,1024.5721
1689212902141,1024.5837
1689212902161,1024.5813
1689212902199,1024.5706
1689212902243,1024.5691
1689212902261,1024.576
1689212902300,1024.569
1689212902341,1024.5552
1689212902362,1024.5374
1689212902404,1024.544
1689212902442,1024.5469
1689212902463,1024.5541
1689212902500,1024.5544
1689212902541,1024.5511
1689212902568,1024.5535
1689212902600,1024.5383
1689212902650,1024.5409
1689212902668,1024.548
1689212902701,1024.5541
1689212902743,1024.5557
1689212902762,1024.5529
1689212902799,1024.5446
1689212902842,1024.5382
1689212902863,1024.5276
1689212902900,1024.5294
1689212902942,1024.5403
1689212902964,1024.5336
1689212903000,1024.5381
1689212903042,1024.5328
1689212903060,1024.535
1689212903102,1024.5488
1689212903142,1024.5562
1689212903159,1024.5547
1689212903202,1024.5537
1689212903245,1024.5581
1689212903259,1024.5634
1689212903301,1024.5706
1689212903340,1024.5763
1689212903361,1024.5751
1689212903399,1024.5765
1689212903440,1024.575
1689212903461,1024.5728
1689212903502,1024.58
1689212903544,1024.5841
1689212903559,1024.583
1689212903601,1024.5737
1689212903640,1024.5546
1689212903661,1024.5575
1689212903702,1024.561
1689212903742,1024.5623
1689212903759,1024.5586
1689212903800,1024.5676
1689212903843,1024.5774
1689212903860,1024.587
1689212903902,1024.581
1689212903945,1024.5679
1689212903960,1024.5656
1689212904002,1024.5488
1689212904039,1024.5461
1689212904060,1024.5391
1689212904100,1024.5519
1689212904147,1024.5715
1689212904160,1024.5554
1689212904201,1024.5452
1689212904241,1024.5493
1689212904268,1024.5543
1689212904299,1024.5701
1689212904342,1024.5718
1689212904360,1024.5748
1689212904401,1024.5728
1689212904441,1024.5834
1689212904461,1024.588
1689212904498,1024.5953
1689212904540,1024.5908
1689212904560,1024.5806
1689212904600,1024.5631
1689212904641,1024.5471
1689212904660,1024.5258
1689212904698,1024.5359
1689212904739,1024.5835
1689212904760,1024.5692
1689212904801,1024.5679
1689212904842,1024.5537
1689212904861,1024.5477
1689212904900,1024.5396
1689212904942,1024.539
1689212904961,1024.536
1689212905000,1024.5414
1689212905041,1024.5444
1689212905060,1024.5417
1689212905099,1024.5371
1689212905138,1024.5388
1689212905158,1024.5256
1689212905198,1024.5365
1689212905241,1024.5215
1689212905268,1024.5261
1689212905300,1024.538
1689212905343,1024.5525
1689212905359,1024.553
1689212905402,1024.5575
1689212905441,1024.5615
1689212905460,1024.5698
1689212905499,1024.5779
1689212905539,1024.5778
1689212905561,1024.5707
1689212905602,1024.5612
1689212905640,1024.5625
1689212905659,1024.5681
1689212905700,1024.5648
1689212905739,1024.5619
1689212905759,1024.5554
1689212905799,1024.5382
1689212905838,1024.5349
1689212905859,1024.5353
1689212905902,1024.5386
1689212905938,1024.5442
1689212905959,1024.5547
1689212906002,1024.552
1689212906037,1024.5426
1689212906059,1024.546
1689212906100,1024.5449
1689212906139,1024.5497
1689212906159,1024.5454
1689212906202,1024.54
1689212906238,1024.5394
1689212906261,1024.5482
1689212906298,1024.5486
1689212906341,1024.5579
1689212906360,1024.5354
1689212906398,1024.542
1689212906442,1024.5544
1689212906459,1024.5535
1689212906499,1024.5498
1689212906539,1024.548
1689212906560,1024.5486
1689212906602,1024.5498
1689212906641,1024.5508
1689212906659,1024.5643
1689212906703,1024.5631
1689212906739,1024.5673
1689212906760,1024.5698
1689212906800,1024.5685
1689212906840,1024.567
1689212906864,1024.5632
1689212906898,1024.5688
1689212906940,1024.5685
1689212906959,1024.5726
1689212907007,1024.59
1689212907038,1024.5831
1689212907060,1024.5463
1689212907098,1024.526
1689212907140,1024.5344
1689212907160,1024.5392
1689212907198,1024.5448
1689212907239,1024.5465
1689212907259,1024.5454
1689212907301,1024.5433
1689212907339,1024.5441
1689212907383,1024.5443
1689212907398,1024.5378
1689212907439,1024.5339
1689212907465,1024.5332
1689212907497,1024.5188
1689212907540,1024.51
1689212907560,1024.5171
1689212907599,1024.5281
1689212907638,1024.5295
1689212907659,1024.5333
1689212907700,1024.5356
1689212907737,1024.5358
1689212907763,1024.5404
1689212907800,1024.553
1689212907839,1024.5604
1689212907859,1024.5632
1689212907898,1024.5768
1689212907942,1024.5713
1689212907956,1024.5623
1689212907999,1024.5624
1689212908041,1024.5612
1689212908058,1024.5586
1689212908097,1024.5546
1689212908137,1024.5597
1689212908159,1024.5648
1689212908203,1024.5548
1689212908239,1024.5546
1689212908259,1024.5671
1689212908300,1024.5613
1689212908339,1024.5531
1689212908358,1024.5493
1689212908401,1024.5369
1689212908443,1024.5316
1689212908459,1024.5367
1689212908500,1024.542
1689212908537,1024.5549
1689212908562,1024.5597
1689212908601,1024.5582
1689212908638,1024.5468
1689212908656,1024.5436
1689212908698,1024.5386
1689212908739,1024.5376
1689212908770,1024.5378
1689212908797,1024.5374
1689212908839,1024.5469
1689212908857,1024.5364
1689212908901,1024.5321
1689212908939,1024.5387
1689212908957,1024.5483
1689212908998,1024.5507
1689212909036,1024.5486
1689212909058,1024.5564
1689212909101,1024.5532
1689212909139,1024.551
1689212909157,1024.545
1689212909199,1024.5505
1689212909236,1024.5548
1689212909258,1024.5422
1689212909299,1024.5497
1689212909337,1024.555
1689212909359,1024.5527
1689212909399,1024.5602
1689212909437,1024.5581
1689212909458,1024.5514
1689212909499,1024.5477
1689212909537,1024.5497
1689212909557,1024.5482
1689212909597,1024.542
1689212909637,1024.5582
1689212909655,1024.572
1689212909696,1024.568
1689212909738,1024.56
1689212909759,1024.5516
1689212909797,1024.5414
1689212909838,1024.5494
1689212909868,1024.5596
1689212909896,1024.5671
1689212909938,1024.5596
1689212909959,1024.5443
1689212910003,1024.5443
1689212910037,1024.5404
1689212910056,1024.532
1689212910099,1024.5232
1689212910137,1024.5143
1689212910156,1024.533
1689212910203,1024.5394
1689212910240,1024.5441
1689212910258,1024.5458
1689212910296,1024.5386
1689212910339,1024.5305
1689212910356,1024.5269
1689212910397,1024.5448
1689212910437,1024.5557
1689212910463,1024.5547
1689212910496,1024.5449
1689212910544,1024.5458
1689212910557,1024.5513
1689212910597,1024.5436
1689212910645,1024.5452
1689212910657,1024.5425
1689212910696,1024.5514
1689212910737,1024.551
1689212910754,1024.5574
1689212910797,1024.5529
1689212910836,1024.5522
1689212910858,1024.5581
1689212910899,1024.5544
1689212910938,1024.559
1689212910957,1024.5588
1689212910998,1024.558
1689212911037,1024.538
1689212911058,1024.5214
1689212911095,1024.5135
1689212911136,1024.5269
1689212911179,1024.5413
1689212911196,1024.543
1689212911238,1024.5348
1689212911276,1024.532
1689212911298,1024.5316
1689212911338,1024.5276
1689212911377,1024.5283
1689212911404,1024.5314
1689212911437,1024.5234
1689212911479,1024.5096
1689212911498,1024.498
1689212911537,1024.5137
1689212911575,1024.5068
1689212911595,1024.4985
1689212911637,1024.509
1689212911675,1024.5315
1689212911696,1024.5355
1689212911737,1024.5363
1689212911778,1024.5513
1689212911798,1024.5486
1689212911843,1024.5432
1689212911876,1024.5494
1689212911895,1024.5458
1689212911939,1024.5585
1689212911974,1024.5691
1689212911995,1024.5668
1689212912036,1024.5597
1689212912075,1024.5613
1689212912098,1024.5608
1689212912137,1024.553
1689212912176,1024.5374
1689212912199,1024.5261
1689212912247,1024.5315
1689212912277,1024.5458
1689212912295,1024.5527
1689212912343,1024.5548
1689212912381,1024.5508
1689212912396,1024.5475
1689212912435,1024.5422
1689212912478,1024.5363
1689212912498,1024.533
1689212912539,1024.5305
1689212912575,1024.5295
1689212912597,1024.5288
1689212912637,1024.5358
1689212912676,1024.528
1689212912702,1024.5299
1689212912736,1024.5289
1689212912776,1024.5385
1689212912795,1024.5017
1689212912843,1024.4968
1689212912875,1024.5149
1689212912898,1024.5343
1689212912936,1024.5308
1689212912974,1024.5393
1689212912995,1024.544
1689212913035,1024.5594
1689212913075,1024.5663
1689212913097,1024.5652
1689212913135,1024.5555
1689212913175,1024.5613
1689212913196,1024.5647
1689212913236,1024.5592
1689212913274,1024.5646
1689212913298,1024.5638
1689212913343,1024.5703
1689212913376,1024.5702
1689212913395,1024.5846
1689212913438,1024.5771
1689212913475,1024.5513
1689212913500,1024.5374
1689212913536,1024.5415
1689212913575,1024.5508
1689212913596,1024.5529
1689212913641,1024.5421
1689212913674,1024.5414
1689212913695,1024.5452
1689212913742,1024.551
1689212913777,1024.5576
1689212913804,1024.5564
1689212913835,1024.556
1689212913875,1024.5458
1689212913895,1024.5352
1689212913934,1024.5366
1689212913974,1024.5287
1689212913993,1024.5234
1689212914033,1024.5149
1689212914075,1024.5159
1689212914097,1024.5292
1689212914135,1024.5292
1689212914173,1024.5428
1689212914193,1024.5471
1689212914236,1024.553
1689212914275,1024.5553
1689212914295,1024.5593
1689212914333,1024.5643
1689212914379,1024.5629
1689212914394,1024.565
1689212914437,1024.5667
1689212914477,1024.5682
1689212914498,1024.5765
1689212914534,1024.5751
1689212914574,1024.5593
1689212914595,1024.5391
1689212914647,1024.5232
1689212914681,1024.5376
1689212914695,1024.5457
1689212914735,1024.5508
1689212914785,1024.5531
1689212914794,1024.5565
1689212914842,1024.5564
1689212914879,1024.5548
1689212914895,1024.5531
1689212914938,1024.5537
1689212914973,1024.5464
1689212914994,1024.541
1689212915034,1024.5417
1689212915075,1024.5522
1689212915094,1024.5476
1689212915134,1024.54
1689212915175,1024.5251
1689212915193,1024.5029
1689212915233,1024.5219
1689212915273,1024.5332
1689212915303,1024.5367
1689212915334,1024.5386
1689212915377,1024.5267
1689212915398,1024.539
1689212915444,1024.5458
1689212915472,1024.551
1689212915502,1024.549
1689212915534,1024.5597
1689212915579,1024.5657
1689212915594,1024.5759
1689212915645,1024.5721
1689212915674,1024.568
1689212915695,1024.5625
1689212915738,1024.569
1689212915779,1024.5575
1689212915795,1024.5452
1689212915832,1024.5405
1689212915874,1024.5304
1689212915894,1024.55
1689212915934,1024.5568
1689212915979,1024.5562
1689212915996,1024.5554
1689212916033,1024.5483
1689212916074,1024.5435
1689212916096,1024.5475
1689212916134,1024.5469
1689212916178,1024.5479
1689212916195,1024.5471
1689212916235,1024.5459
1689212916274,1024.5425
1689212916294,1024.5433
1689212916333,1024.5424
1689212916372,1024.5406
1689212916395,1024.533
1689212916434,1024.5344
1689212916473,1024.5354
1689212916493,1024.5317
1689212916532,1024.5406
1689212916575,1024.5369
1689212916595,1024.5465
1689212916634,1024.5562
1689212916673,1024.5684
1689212916694,1024.5758
1689212916734,1024.5657
1689212916773,1024.5703
1689212916795,1024.5651
1689212916834,1024.5621
1689212916873,1024.5691
1689212916896,1024.5703
1689212916933,1024.5786
1689212916972,1024.5725
1689212916997,1024.5566
1689212917032,1024.5505
1689212917074,1024.5397
1689212917093,1024.5393
1689212917134,1024.5488
1689212917173,1024.5654
1689212917193,1024.5518
1689212917233,1024.5496
1689212917275,1024.559
1689212917297,1024.554
1689212917334,1024.5541
1689212917372,1024.5476
1689212917401,1024.5577
1689212917435,1024.5255
1689212917472,1024.509
1689212917493,1024.5222
1689212917534,1024.5381
1689212917572,1024.5469
1689212917592,1024.5266
1689212917634,1024.5232
1689212917673,1024.5289
1689212917694,1024.5406
1689212917736,1024.544
1689212917772,1024.5498
1689212917792,1024.558
1689212917832,1024.5646
1689212917871,1024.5664
1689212917893,1024.5746
1689212917936,1024.5719
1689212917973,1024.557
1689212917996,1024.5337
1689212918032,1024.518
1689212918073,1024.5006
1689212918105,1024.5111
1689212918132,1024.537
1689212918182,1024.5485
1689212918194,1024.5376
1689212918233,1024.5397
1689212918272,1024.5404
1689212918291,1024.5396
1689212918335,1024.5504
1689212918373,1024.5469
1689212918393,1024.5459
1689212918433,1024.5454
1689212918476,1024.546
1689212918492,1024.5338
1689212918535,1024.5211
1689212918572,1024.5352
1689212918593,1024.5137
1689212918633,1024.4928
1689212918672,1024.4933
1689212918691,1024.5048
1689212918737,1024.5228
1689212918773,1024.5366
1689212918792,1024.5325
1689212918833,1024.544
1689212918872,1024.5605
1689212918902,1024.5626
1689212918932,1024.5533
1689212918973,1024.5507
1689212918999,1024.5566
1689212919032,1024.5588
1689212919080,1024.5559
1689212919094,1024.5531
1689212919131,1024.5469
1689212919171,1024.5333
1689212919193,1024.5287
1689212919236,1024.5312
1689212919272,1024.5393
1689212919295,1024.551
1689212919336,1024.5508
1689212919375,1024.5455
1689212919391,1024.5457
1689212919431,1024.547
1689212919471,1024.541
1689212919492,1024.5336
1689212919532,1024.5305
1689212919571,1024.5342
1689212919593,1024.5176
1689212919638,1024.524
1689212919672,1024.5294
1689212919692,1024.5238
1689212919733,1024.521
1689212919771,1024.5239
1689212919791,1024.5345
1689212919843,1024.5356
1689212919871,1024.538
1689212919893,1024.5317
1689212919935,1024.5507
1689212919972,1024.5682
1689212919990,1024.568
1689212920043,1024.563
1689212920074,1024.5515
1689212920093,1024.5613
1689212920132,1024.5648
1689212920173,1024.5671
1689212920191,1024.5591
1689212920230,1024.5732
1689212920272,1024.5659
1689212920300,1024.5591
1689212920334,1024.5366
1689212920371,1024.5134
1689212920390,1024.516
1689212920432,1024.5265
1689212920483,1024.5305
1689212920491,1024.5349
1689212920532,1024.5388
1689212920572,1024.533
1689212920590,1024.5293
1689212920638,1024.5339
1689212920671,1024.529
1689212920693,1024.5376
1689212920731,1024.5344
1689212920789,1024.5323
1689212920789,1024.5216
1689212920830,1024.5271
1689212920870,1024.5343
1689212920893,1024.508
1689212920932,1024.5107
1689212920972,1024.5214
1689212920991,1024.5303
1689212921032,1024.5267
1689212921070,1024.5416
1689212921089,1024.5386
1689212921130,1024.5438
1689212921169,1024.5532
1689212921189,1024.5571
1689212921230,1024.5475
1689212921270,1024.5469
1689212921289,1024.5527
1689212921329,1024.5496
1689212921371,1024.5419
1689212921391,1024.5488
1689212921431,1024.5544
1689212921470,1024.5663
1689212921490,1024.5535
1689212921530,1024.5411
1689212921571,1024.5366
1689212921590,1024.5542
1689212921630,1024.562
1689212921670,1024.5715
1689212921689,1024.5784
1689212921730,1024.572
1689212921774,1024.5673
1689212921790,1024.5637
1689212921831,1024.5562
1689212921870,1024.5527
1689212921890,1024.5519
1689212921933,1024.548
1689212921969,1024.5457
1689212921991,1024.5538
1689212922031,1024.5336
1689212922071,1024.5344
1689212922095,1024.5447
1689212922130,1024.548
1689212922171,1024.5491
1689212922195,1024.5455
1689212922230,1024.5459
1689212922270,1024.5446
1689212922289,1024.5557
1689212922329,1024.563
1689212922374,1024.5739
1689212922389,1024.5686
1689212922432,1024.5663
1689212922469,1024.5631
1689212922490,1024.5715
1689212922531,1024.5728
1689212922571,1024.575
1689212922592,1024.5653
1689212922630,1024.5964
1689212922681,1024.5919
1689212922689,1024.5652
1689212922735,1024.5594
1689212922770,1024.576
1689212922791,1024.5807
1689212922831,1024.5829
1689212922872,1024.5815
1689212922892,1024.5686
1689212922930,1024.5646
1689212922972,1024.5662
1689212922998,1024.5571
1689212923030,1024.556
1689212923078,1024.5568
1689212923092,1024.5349
1689212923130,1024.5295
1689212923172,1024.536
1689212923192,1024.5432
1689212923231,1024.5507
1689212923269,1024.5537
1689212923290,1024.5356
1689212923329,1024.5408
1689212923370,1024.5426
1689212923390,1024.5493
1689212923430,1024.568
1689212923470,1024.5674
1689212923494,1024.5692
1689212923531,1024.5615
1689212923570,1024.5609
1689212923591,1024.5674
1689212923629,1024.5656
1689212923671,1024.5591
1689212923688,1024.5566
1689212923732,1024.5673
1689212923770,1024.5632
1689212923790,1024.5787
1689212923830,1024.5659
1689212923869,1024.5537
1689212923889,1024.5525
1689212923931,1024.5508
1689212923981,1024.5521
1689212923990,1024.5499
1689212924030,1024.552
1689212924070,1024.552
1689212924090,1024.5433
1689212924133,1024.5344
1689212924169,1024.5381
1689212924189,1024.552
1689212924229,1024.5598
1689212924270,1024.5607
1689212924298,1024.5691
1689212924336,1024.5674
1689212924369,1024.5774
1689212924390,1024.5975
1689212924432,1024.5952
1689212924470,1024.5652
1689212924488,1024.556
1689212924529,1024.5576
1689212924571,1024.5629
1689212924588,1024.566
1689212924628,1024.5598
1689212924669,1024.547
1689212924688,1024.553
1689212924732,1024.5482
1689212924768,1024.5316
1689212924789,1024.5332
1689212924832,1024.5327
1689212924868,1024.5306
1689212924890,1024.5371
1689212924931,1024.537
1689212924968,1024.5356
1689212924992,1024.5422
1689212925027,1024.5361
1689212925066,1024.5308
1689212925087,1024.5261
1689212925130,1024.5188
1689212925166,1024.5199
1689212925187,1024.5276
1689212925227,1024.5264
1689212925267,1024.5305
1689212925288,1024.5259
1689212925327,1024.5261
1689212925366,1024.5198
1689212925388,1024.5077
1689212925426,1024.5146
1689212925466,1024.5181
1689212925487,1024.515
1689212925526,1024.5063
1689212925567,1024.5126
1689212925586,1024.5139
1689212925627,1024.5135
1689212925666,1024.5098
1689212925686,1024.5077
1689212925726,1024.5013
1689212925766,1024.4941
1689212925787,1024.511
1689212925826,1024.5173
1689212925867,1024.5095
1689212925887,1024.5077
1689212925926,1024.5017
1689212925966,1024.4951
1689212925987,1024.4906
1689212926027,1024.4961
1689212926066,1024.4976
1689212926087,1024.4949
1689212926127,1024.4937
1689212926167,1024.5001
1689212926187,1024.5093
1689212926226,1024.5052
1689212926271,1024.5092
1689212926287,1024.5028
1689212926327,1024.5042
1689212926366,1024.5114
1689212926386,1024.511
1689212926427,1024.5212
1689212926466,1024.5176
1689212926489,1024.512
1689212926543,1024.517
1689212926611,1024.5103
1689212926611,1024.5079
1689212926634,1024.5104
1689212926666,1024.5156
1689212926686,1024.5201
1689212926727,1024.5194
1689212926766,1024.5145
1689212926786,1024.5118
1689212926826,1024.5127
1689212926866,1024.507
1689212926887,1024.5112
1689212926926,1024.4993
1689212926966,1024.507
1689212926986,1024.5146
1689212927026,1024.5208
1689212927066,1024.5242
1689212927085,1024.5212
1689212927126,1024.5168
